SpectraSuite Datei
++++++++++++++++++++++++++++++++++++
Datum: Sun Jan 04 03:16:15 CET 2004
Benutzer: Student
Dark-Spektrum vorhanden: Nein
Referenz-Spektrum vorhanden: Nein
Zahl der probierten Teilspektren: 1
Spektrometer: USB2+H04734
Integrationszeit (usec): 10000000 (USB2+H04734)
Spektren Durchschnitt berechnet: 10 (USB2+H04734)
Boxcar Glättung: 0 (USB2+H04734)
Dunkelstromkorrektur: Nein (USB2+H04734)
Puls/Lampe aktiviert: Nein (USB2+H04734)
Correct for Detector Non-linearity: Nein (USB2+H04734)
Streulichtkorrektur: Nein (USB2+H04734)
Anzahl Pixel in verarbeitetem Spektrum: 2048
>>>>>Begin Processed Spectral Data<<<<<
418,45	1224,37
418,57	1224,37
418,69	1224,37
418,80	1152,29
418,92	1161,55
419,04	3412,34
419,16	2021,42
419,28	2025,26
419,40	1859,61
419,52	2071,58
419,64	1814,64
419,75	1876,56
419,87	1961,76
419,99	1792,95
420,11	1857,80
420,23	1971,47
420,35	2409,88
420,47	2145,03
420,58	1903,00
420,70	2201,98
420,82	2100,28
420,94	2397,00
421,06	2923,31
421,18	2484,23
421,29	2269,77
421,41	1996,33
421,53	2255,08
421,65	2725,35
421,77	2720,15
421,89	2278,58
422,00	3105,68
422,12	2218,25
422,24	2149,10
422,36	2883,54
422,48	2838,80
422,59	2303,67
422,71	2702,75
422,83	2027,29
422,95	2148,87
423,07	2606,26
423,18	3080,82
423,30	2765,35
423,42	2169,43
423,54	2382,54
423,66	2162,65
423,77	2416,21
423,89	2212,60
424,01	2094,41
424,13	1992,72
424,25	2060,06
424,36	2507,50
424,48	2409,43
424,60	2211,02
424,72	3011,67
424,84	2206,04
424,95	2852,58
425,07	2385,47
425,19	2360,84
425,31	2483,78
425,42	1980,51
425,54	2598,12
425,66	2490,56
425,78	2177,34
425,89	2380,28
426,01	2200,17
426,13	2269,77
426,25	2759,48
426,36	2231,35
426,48	2589,99
426,60	2651,91
426,72	2268,64
426,83	2682,64
426,95	2552,02
427,07	2275,65
427,19	3339,57
427,30	2373,95
427,42	1938,48
427,54	2060,96
427,66	2232,71
427,77	2132,60
427,89	2408,98
428,01	2564,90
428,12	2578,69
428,24	1968,99
428,36	2036,33
428,48	1948,42
428,59	2028,65
428,71	2397,45
428,83	1991,81
428,94	2147,29
429,06	2135,54
429,18	2571,01
429,30	2359,49
429,41	2197,91
429,53	2735,97
429,65	2653,49
429,76	2549,76
429,88	2138,70
430,00	2518,13
430,11	2925,57
430,23	2202,43
430,35	3127,60
430,47	2169,66
430,58	2034,30
430,70	2766,71
430,82	2487,62
430,93	4012,78
431,05	2424,34
431,17	2267,96
431,28	2752,70
431,40	2084,01
431,52	3121,50
431,63	2006,73
431,75	1959,50
431,87	2252,37
431,98	2707,05
432,10	2399,71
432,22	2245,59
432,33	2886,48
432,45	2323,10
432,56	2408,75
432,68	2670,44
432,80	2169,43
432,91	2630,21
433,03	2401,97
433,15	2921,05
433,26	2440,39
433,38	2227,51
433,50	1915,43
433,61	2763,54
433,73	3006,93
433,84	2255,08
433,96	2063,90
434,08	2296,66
434,19	2246,27
434,31	2246,49
434,43	2389,32
434,54	2285,59
434,66	1930,34
434,77	1895,77
434,89	2651,68
435,01	2418,92
435,12	2025,94
435,24	2199,72
435,35	2146,16
435,47	3224,32
435,59	2336,66
435,70	2080,40
435,82	2313,61
435,93	2803,09
436,05	2384,57
436,17	2243,78
436,28	2556,77
436,40	2508,63
436,51	2049,21
436,63	2252,60
436,74	2857,33
436,86	3178,22
436,98	4680,78
437,09	2213,73
437,21	2690,55
437,32	2052,60
437,44	2650,78
437,55	2156,33
437,67	6038,49
437,79	3630,19
437,90	2505,92
438,02	2081,75
438,13	11245,81
438,25	3073,59
438,36	2736,43
438,48	2504,34
438,59	2845,35
438,71	2440,61
438,83	2097,57
438,94	2004,69
439,06	2842,86
439,17	2773,94
439,29	2125,14
439,40	2380,73
439,52	2210,79
439,63	2535,53
439,75	2038,36
439,86	2001,08
439,98	2336,44
440,09	2707,05
440,21	2280,17
440,32	2167,17
440,44	1930,57
440,55	2356,55
440,67	2190,00
440,78	2870,43
440,90	2018,25
441,01	2192,48
441,13	2067,97
441,24	2497,79
441,36	2976,64
441,47	2111,13
441,59	2736,43
441,70	2006,73
441,82	2744,79
441,93	2516,54
442,05	1911,59
442,16	2116,78
442,28	1928,08
442,39	2305,25
442,51	2699,14
442,62	2193,61
442,74	2720,61
442,85	2274,06
442,97	3352,91
443,08	2682,87
443,20	2633,15
443,31	2458,92
443,43	2136,44
443,54	2513,83
443,66	1921,98
443,77	2069,32
443,88	1929,89
444,00	2392,25
444,11	2707,27
444,23	3007,15
444,34	2076,10
444,46	2009,21
444,57	2944,10
444,69	2797,21
444,80	2531,91
444,91	3596,29
445,03	2011,92
445,14	2756,09
445,26	1941,87
445,37	1998,82
445,49	2369,43
445,60	2926,48
445,71	3202,85
445,83	2319,94
445,94	2025,94
446,06	2780,04
446,17	1960,63
446,29	1842,89
446,40	2248,75
446,51	2796,08
446,63	2294,85
446,74	2094,41
446,86	2111,13
446,97	2876,53
447,08	2074,52
447,20	2212,60
447,31	1947,75
447,43	2288,30
447,54	2388,41
447,65	2594,51
447,77	2018,70
447,88	2259,15
448,00	2426,38
448,11	1929,67
448,22	2121,75
448,34	2435,42
448,45	1849,89
448,56	2234,52
448,68	2461,86
448,79	2943,20
448,90	2548,63
449,02	2212,15
449,13	2147,51
449,25	2480,39
449,36	2143,22
449,47	2220,96
449,59	3007,15
449,70	2366,72
449,81	2113,84
449,93	2261,86
450,04	2149,10
450,15	2182,09
450,27	2249,66
450,38	2529,88
450,49	2174,63
450,61	3161,95
450,72	2230,68
450,83	2680,61
450,95	2193,39
451,06	2521,29
451,17	3168,73
451,29	2661,85
451,40	2087,18
451,51	1905,49
451,63	1996,78
451,74	2798,80
451,85	2208,76
451,97	2702,53
452,08	2336,89
452,19	2063,00
452,31	2935,29
452,42	2321,52
452,53	3084,44
452,65	2892,58
452,76	1973,06
452,87	2002,43
452,98	2055,99
453,10	2226,16
453,21	1994,98
453,32	2125,82
453,44	1991,81
453,55	1885,60
453,66	3585,67
453,77	2565,58
453,89	2644,45
454,00	3135,06
454,11	2384,12
454,23	2337,57
454,34	2327,62
454,45	1926,50
454,56	2542,53
454,68	3309,07
454,79	2301,18
454,90	2416,89
455,01	1986,84
455,13	1910,91
455,24	3036,30
455,35	2082,21
455,46	1804,92
455,58	1896,90
455,69	2940,94
455,80	2538,01
455,91	1950,91
456,03	2231,13
456,14	2701,62
456,25	2081,75
456,36	1936,22
456,48	2232,94
456,59	2947,95
456,70	2070,45
456,81	2830,66
456,92	3229,29
457,04	2669,53
457,15	3560,36
457,26	1983,22
457,37	2207,40
457,49	2067,97
457,60	1931,93
457,71	2321,97
457,82	2571,68
457,93	2328,07
458,05	2841,51
458,16	2019,16
458,27	2187,51
458,38	2320,62
458,49	2542,76
458,61	2201,75
458,72	2365,81
458,83	2237,00
458,94	2581,18
459,05	2529,43
459,17	4688,24
459,28	2117,01
459,39	2232,71
459,50	1906,84
459,61	2723,32
459,72	1940,74
459,84	1966,05
459,95	2284,46
460,06	4561,24
460,17	2078,82
460,28	2206,04
460,39	2232,71
460,51	2446,94
460,62	2234,52
460,73	2207,85
460,84	1807,64
460,95	2993,37
461,06	3179,80
461,18	2954,95
461,29	2876,99
461,40	2315,87
461,51	2445,81
461,62	3675,61
461,73	2260,73
461,84	2537,56
461,96	2526,49
462,07	2632,02
462,18	2111,13
462,29	2247,62
462,40	2733,04
462,51	2229,77
462,62	2994,95
462,73	3209,18
462,85	2657,33
462,96	2568,07
463,07	2761,06
463,18	3510,64
463,29	2617,78
463,40	2126,95
463,51	1986,84
463,62	1980,96
463,73	2666,82
463,85	2021,87
463,96	2347,96
464,07	2309,77
464,18	2229,09
464,29	1974,64
464,40	3074,50
464,51	2360,16
464,62	2189,09
464,73	1906,62
464,84	2549,09
464,95	2247,62
465,06	2239,26
465,18	1839,27
465,29	2385,70
465,40	2126,05
465,51	2233,61
465,62	2613,04
465,73	2261,64
465,84	2444,46
465,95	2458,47
466,06	2098,70
466,17	2284,91
466,28	2208,98
466,39	2814,62
466,50	1897,80
466,61	1728,77
466,72	2392,71
466,83	1891,48
466,95	1970,12
467,06	1820,07
467,17	2186,84
467,28	2036,33
467,39	2190,22
467,50	2523,32
467,61	1842,44
467,72	1909,55
467,83	1948,88
467,94	2364,91
468,05	1883,57
468,16	2433,61
468,27	2272,71
468,38	1911,59
468,49	2800,38
468,60	1978,03
468,71	2863,20
468,82	2756,31
468,93	2692,81
469,04	3069,75
469,15	2239,04
469,26	2086,27
469,37	2197,91
469,48	2855,07
469,59	2314,52
469,70	1919,95
469,81	2239,72
469,92	1789,56
470,03	2590,44
470,14	1937,35
470,25	2681,51
470,36	2290,79
470,47	1831,36
470,58	1840,63
470,69	2606,49
470,80	2644,68
470,91	1993,85
471,02	2095,99
471,13	2354,74
471,24	2368,07
471,35	2099,61
471,46	3035,40
471,56	2690,78
471,67	2778,68
471,78	2949,98
471,89	1808,77
472,00	2015,31
472,11	2548,41
472,22	2746,82
472,33	2172,15
472,44	2339,60
472,55	2044,92
472,66	2241,75
472,77	2142,77
472,88	3405,33
472,99	2742,98
473,10	1851,93
473,21	2100,28
473,32	2136,67
473,42	1893,51
473,53	1971,25
473,64	2388,19
473,75	2445,81
473,86	2307,96
473,97	2434,06
474,08	2418,92
474,19	2732,58
474,30	3441,72
474,41	2503,66
474,52	2081,75
474,62	2331,92
474,73	2016,22
474,84	3244,43
474,95	2552,70
475,06	2574,62
475,17	1976,22
475,28	1810,35
475,39	2250,56
475,50	1967,63
475,60	1881,53
475,71	1938,25
475,82	2706,82
475,93	1954,75
476,04	2884,67
476,15	2134,86
476,26	2450,56
476,37	2072,49
476,47	2081,30
476,58	2052,38
476,69	1803,57
476,80	1814,87
476,91	2111,81
477,02	2268,64
477,13	2272,03
477,23	1980,51
477,34	2366,27
477,45	2434,06
477,56	2108,19
477,67	2107,29
477,78	2275,65
477,89	2240,85
477,99	2097,35
478,10	2622,98
478,21	2446,04
478,32	2298,92
478,43	2084,92
478,54	3221,38
478,64	2498,69
478,75	2238,81
478,86	2044,69
478,97	2233,16
479,08	2127,18
479,18	1904,58
479,29	2070,23
479,40	1895,77
479,51	1746,62
479,62	2002,66
479,72	2041,98
479,83	1836,79
479,94	2413,72
480,05	2380,28
480,16	1969,67
480,26	2378,69
480,37	1903,00
480,48	2594,06
480,59	2247,62
480,70	2269,54
480,80	2147,51
480,91	1945,94
481,02	1823,91
481,13	2322,42
481,24	2273,16
481,34	1903,68
481,45	3353,13
481,56	2098,93
481,67	2133,05
481,77	2085,82
481,88	2029,55
481,99	2376,66
482,10	2367,85
482,20	4894,33
482,31	2150,00
482,42	2447,85
482,53	2033,39
482,63	2949,98
482,74	2609,42
482,85	1936,90
482,96	1974,64
483,06	1823,68
483,17	2465,47
483,28	1930,12
483,39	2198,59
483,49	2532,14
483,60	3487,82
483,71	2008,31
483,81	2681,29
483,92	2164,01
484,03	2171,24
484,14	2072,49
484,24	1895,09
484,35	2178,47
484,46	2243,33
484,57	2031,81
484,67	2407,17
484,78	2039,49
484,89	3347,93
484,99	2069,32
485,10	2200,39
485,21	2401,97
485,31	2382,08
485,42	2323,78
485,53	2044,69
485,63	2188,19
485,74	3050,99
485,85	3723,29
485,96	8927,22
486,06	2352,48
486,17	2278,58
486,28	2389,77
486,38	1838,82
486,49	2624,11
486,60	1896,45
486,70	1955,20
486,81	2056,44
486,92	1971,02
487,02	1967,41
487,13	1733,97
487,24	2061,19
487,34	1934,41
487,45	3032,46
487,56	2162,43
487,66	1933,73
487,77	2290,34
487,87	2065,93
487,98	1733,29
488,09	2107,74
488,19	1731,93
488,30	3461,15
488,41	2031,58
488,51	1813,51
488,62	1985,94
488,73	1954,07
488,83	2252,37
488,94	2431,35
489,04	3026,59
489,15	1965,37
489,26	1886,96
489,36	2348,86
489,47	2050,79
489,58	1906,39
489,68	2419,15
489,79	1928,08
489,89	2228,19
490,00	2080,85
490,11	2346,15
490,21	2380,28
490,32	1873,85
490,42	2193,61
490,53	2234,74
490,64	1850,12
490,74	1872,27
490,85	1847,64
490,95	2570,78
491,06	2399,26
491,16	1964,92
491,27	2401,29
491,38	2028,65
491,48	3330,53
491,59	3047,83
491,69	2381,18
491,80	1811,03
491,90	2909,30
492,01	1838,14
492,12	2483,55
492,22	2033,17
492,33	2685,81
492,43	2227,29
492,54	1838,37
492,64	1900,74
492,75	2226,61
492,86	2301,18
492,96	2123,11
493,07	1956,11
493,17	2298,02
493,28	2496,66
493,38	2318,13
493,49	1998,59
493,59	2430,22
493,70	2290,79
493,80	1943,68
493,91	1838,14
494,01	1939,84
494,12	1983,90
494,22	2668,18
494,33	2957,44
494,43	2886,70
494,54	3109,07
494,64	2450,11
494,75	1959,27
494,86	2763,09
494,96	1955,88
495,07	2110,45
495,17	2866,59
495,28	2104,35
495,38	1967,41
495,49	2165,82
495,59	2373,95
495,69	2176,21
495,80	2878,12
495,90	2103,67
496,01	1859,39
496,11	2348,64
496,22	2091,70
496,32	1880,85
496,43	2548,86
496,53	2067,74
496,64	2116,10
496,74	2312,26
496,85	2495,53
496,95	2259,83
497,06	2004,69
497,16	2380,28
497,27	2143,45
497,37	2799,25
497,48	1870,69
497,58	1877,46
497,68	2038,59
497,79	2655,30
497,89	2015,54
498,00	2208,08
498,10	1811,25
498,21	2669,08
498,31	2000,17
498,42	1962,43
498,52	2683,09
498,62	2190,68
498,73	2197,23
498,83	2413,50
498,94	1989,55
499,04	2724,67
499,15	2091,47
499,25	1909,10
499,35	2507,50
499,46	3057,77
499,56	3390,42
499,67	2469,99
499,77	1756,79
499,87	1916,33
499,98	1962,21
500,08	1699,39
500,19	2009,66
500,29	2178,02
500,39	2393,16
500,50	2616,88
500,60	2173,28
500,71	2216,89
500,81	2233,61
500,91	1835,21
501,02	2022,77
501,12	2428,64
501,22	1845,15
501,33	2264,57
501,43	2562,87
501,54	1825,49
501,64	1983,68
501,74	2022,32
501,85	2841,06
501,95	1920,85
502,05	1912,72
502,16	2046,95
502,26	2961,50
502,37	2500,95
502,47	2280,39
502,57	2100,74
502,68	1956,78
502,78	1852,38
502,88	2622,30
502,99	2107,52
503,09	2620,72
503,19	1896,67
503,30	1780,07
503,40	1893,51
503,50	2014,86
503,61	2158,59
503,71	2041,53
503,81	2087,85
503,92	2225,25
504,02	2662,30
504,12	3956,51
504,23	2798,12
504,33	2125,14
504,43	2072,71
504,54	2579,37
504,64	2512,25
504,74	3940,24
504,84	2265,03
504,95	2041,53
505,05	1709,33
505,15	2794,50
505,26	1844,02
505,36	1985,03
505,46	1979,38
505,56	2374,17
505,67	2450,78
505,77	2356,55
505,87	1886,96
505,98	1731,25
506,08	1989,33
506,18	2134,63
506,28	2265,70
506,39	2151,81
506,49	1868,88
506,59	2007,18
506,70	1819,61
506,80	2250,34
506,90	3146,81
507,00	1779,39
507,11	2212,15
507,21	2622,30
507,31	2468,64
507,41	2195,20
507,52	2021,42
507,62	2122,43
507,72	2730,55
507,82	2671,34
507,93	2050,12
508,03	2647,16
508,13	2296,44
508,23	2119,04
508,34	2319,94
508,44	1877,69
508,54	1887,86
508,64	2182,09
508,74	1753,85
508,85	1964,92
508,95	2112,26
509,05	1818,48
509,15	2051,02
509,26	2335,98
509,36	1895,32
509,46	2215,08
509,56	1817,13
509,66	2131,92
509,77	1915,43
509,87	2004,02
509,97	2119,94
510,07	2193,16
510,17	1696,68
510,28	3493,92
510,38	2606,71
510,48	2009,44
510,58	2382,54
510,68	2228,87
510,78	2192,94
510,89	1958,37
510,99	1743,46
511,09	2550,44
511,19	2437,90
511,29	1827,30
511,39	2599,48
511,50	2730,10
511,60	1834,08
511,70	2458,69
511,80	2571,46
511,90	2552,93
512,00	2131,70
512,11	1908,42
512,21	2198,59
512,31	1793,63
512,41	2932,80
512,51	2261,18
512,61	3345,00
512,71	1973,73
512,82	1956,11
512,92	1705,04
513,02	2371,46
513,12	2058,48
513,22	1966,95
513,32	2546,60
513,42	2267,29
513,53	2640,61
513,63	2386,15
513,73	2500,05
513,83	1814,87
513,93	2364,01
514,03	2441,97
514,13	2904,78
514,23	1924,70
514,33	2047,40
514,44	2044,24
514,54	1992,04
514,64	3103,87
514,74	2037,01
514,84	2021,19
514,94	2500,27
515,04	2469,54
515,14	2244,46
515,24	2366,04
515,34	2257,12
515,44	1687,19
515,55	1707,75
515,65	2381,41
515,75	1939,61
515,85	2044,01
515,95	2454,62
516,05	2835,18
516,15	2323,33
516,25	1804,02
516,35	1891,93
516,45	1947,97
516,55	1906,16
516,65	2104,35
516,75	3215,73
516,85	2412,59
516,95	2567,62
517,05	2684,45
517,16	1836,56
517,26	3542,05
517,36	1968,76
517,46	1755,43
517,56	2241,07
517,66	2109,32
517,76	1945,26
517,86	1939,16
517,96	2358,36
518,06	1848,09
518,16	1860,74
518,26	2279,26
518,36	1842,21
518,46	1982,09
518,56	2463,66
518,66	2588,63
518,76	2174,18
518,86	2560,84
518,96	1878,14
519,06	1953,62
519,16	2368,53
519,26	2219,60
519,36	2346,38
519,46	2185,03
519,56	2812,58
519,66	3257,54
519,76	1934,41
519,86	1934,64
519,96	2217,57
520,06	2055,31
520,16	3055,96
520,26	2394,97
520,36	1967,41
520,46	1978,93
520,56	1916,79
520,66	2017,12
520,76	1923,79
520,86	2037,91
520,96	2692,81
521,06	2362,88
521,16	1832,04
521,26	2061,87
521,35	2355,87
521,45	1799,05
521,55	1971,47
521,65	2364,46
521,75	1931,25
521,85	1677,47
521,95	2118,36
522,05	1731,93
522,15	1812,83
522,25	5884,14
522,35	2626,82
522,45	2015,31
522,55	2483,10
522,65	2131,24
522,75	1852,15
522,85	1929,44
522,94	2026,61
523,04	2412,59
523,14	2219,60
523,24	1804,92
523,34	1874,75
523,44	2188,64
523,54	1898,26
523,64	1815,32
523,74	2888,29
523,84	2419,37
523,94	2318,81
524,03	1767,41
524,13	2251,47
524,23	2259,38
524,33	1851,93
524,43	2072,94
524,53	2141,19
524,63	1921,08
524,73	1944,58
524,83	1809,67
524,92	2066,61
525,02	1745,04
525,12	2480,84
525,22	2174,63
525,32	1851,02
525,42	2653,49
525,52	2172,82
525,61	2364,46
525,71	1717,47
525,81	2294,63
525,91	1857,13
526,01	2212,15
526,11	2248,75
526,21	2525,58
526,30	2338,92
526,40	1973,96
526,50	2328,53
526,60	2511,57
526,70	2460,27
526,80	2386,38
526,89	2035,65
526,99	1906,16
527,09	2235,20
527,19	2338,70
527,29	2528,07
527,39	2125,14
527,48	2359,94
527,58	2302,31
527,68	1795,88
527,78	2743,88
527,88	3271,10
527,97	2144,58
528,07	1906,16
528,17	2622,30
528,27	2741,62
528,37	2119,04
528,46	1919,95
528,56	3022,29
528,66	2463,44
528,76	1792,72
528,86	2594,73
528,95	1893,74
529,05	2212,60
529,15	2247,17
529,25	2534,62
529,35	2596,32
529,44	2446,26
529,54	2857,55
529,64	2451,23
529,74	2106,39
529,83	1845,38
529,93	2027,29
530,03	2336,66
530,13	2219,83
530,22	2771,90
530,32	2680,83
530,42	2540,05
530,52	1701,20
530,61	2519,26
530,71	1818,71
530,81	2535,30
530,91	2115,42
531,00	2044,01
531,10	2013,28
531,20	2295,31
531,30	2027,74
531,39	2093,96
531,49	1944,58
531,59	3721,48
531,69	2747,95
531,78	2172,60
531,88	2653,26
531,98	2799,70
532,07	2263,22
532,17	2659,14
532,27	2928,74
532,37	2365,81
532,46	2437,00
532,56	2296,66
532,66	1875,66
532,75	2137,80
532,85	2261,86
532,95	2106,39
533,04	2139,38
533,14	2311,13
533,24	2459,82
533,34	1999,27
533,43	2477,45
533,53	1749,56
533,63	2333,27
533,72	2048,08
533,82	1874,75
533,92	1866,84
534,01	3588,15
534,11	3933,23
534,21	2481,97
534,30	2050,79
534,40	2137,12
534,50	1764,02
534,59	2006,73
534,69	1854,19
534,79	2264,80
534,88	2890,32
534,98	2609,20
535,08	1684,70
535,17	2483,55
535,27	2052,15
535,36	1917,01
535,46	2356,55
535,56	1819,61
535,65	2377,34
535,75	2576,43
535,85	2271,80
535,94	1982,09
536,04	2140,96
536,14	2470,22
536,23	2875,40
536,33	2006,73
536,42	2283,33
536,52	2077,46
536,62	1750,91
536,71	2302,76
536,81	2185,03
536,90	2173,05
537,00	2233,16
537,10	1947,52
537,19	2195,20
537,29	2378,24
537,38	2689,42
537,48	2168,53
537,58	2150,00
537,67	1920,85
537,77	2051,25
537,86	1992,26
537,96	2754,28
538,06	2072,04
538,15	1873,17
538,25	3170,54
538,34	3435,16
538,44	3177,09
538,53	2414,85
538,63	2805,12
538,73	2478,80
538,82	2176,89
538,92	2086,50
539,01	3151,10
539,11	1834,75
539,20	3393,13
539,30	2389,77
539,39	1968,08
539,49	2349,77
539,59	2456,88
539,68	3482,85
539,78	3406,24
539,87	2456,21
539,97	2511,80
540,06	2483,78
540,16	1844,47
540,25	2432,03
540,35	2962,41
540,44	2471,80
540,54	3043,31
540,63	2321,97
540,73	2026,16
540,82	2518,80
540,92	1978,71
541,01	2685,13
541,11	2798,12
541,20	2287,17
541,30	2300,05
541,39	2476,32
541,49	2318,81
541,58	3022,07
541,68	2893,71
541,77	2342,31
541,87	1820,52
541,96	1808,54
542,06	2605,58
542,15	2394,97
542,25	3028,39
542,34	2604,45
542,44	1984,35
542,53	2149,32
542,63	2390,90
542,72	2033,39
542,82	1996,78
542,91	2216,89
543,01	1934,19
543,10	2544,57
543,20	2197,00
543,29	2369,88
543,38	1946,84
543,48	2125,59
543,57	2044,92
543,67	2019,83
543,76	2090,11
543,86	2065,93
543,95	2409,43
544,05	3155,40
544,14	3495,73
544,23	2250,79
544,33	1990,91
544,42	2475,64
544,52	2066,39
544,61	2268,64
544,71	2972,80
544,80	3293,47
544,89	2981,39
544,99	2413,27
545,08	2918,57
545,18	1888,31
545,27	3628,61
545,36	3065,00
545,46	2574,17
545,55	2145,25
545,65	2269,09
545,74	2080,85
545,84	1839,73
545,93	2318,36
546,02	2135,76
546,12	2694,62
546,21	2480,84
546,30	2340,28
546,40	2456,66
546,49	2011,02
546,59	2404,23
546,68	2091,02
546,77	2721,74
546,87	2411,69
546,96	2771,45
547,05	2448,98
547,15	2002,21
547,24	2252,82
547,34	2010,34
547,43	2297,79
547,52	2807,84
547,62	2491,01
547,71	2624,11
547,80	2569,20
547,90	2243,33
547,99	3206,92
548,08	2462,99
548,18	1745,72
548,27	1937,58
548,36	1934,64
548,46	2065,26
548,55	1994,52
548,64	2352,71
548,74	1953,17
548,83	2320,84
548,92	3195,17
549,02	1992,49
549,11	3640,81
549,20	2632,93
549,30	2147,29
549,39	2322,65
549,48	2423,89
549,58	1891,48
549,67	2505,47
549,76	2300,73
549,85	1850,57
549,95	2184,35
550,04	2624,11
550,13	1868,20
550,23	2554,28
550,32	1985,71
550,41	1930,57
550,50	2403,33
550,60	3106,13
550,69	2278,58
550,78	1820,97
550,88	2665,24
550,97	2583,66
551,06	2217,34
551,15	2259,15
551,25	3050,77
551,34	1932,83
551,43	2159,49
551,52	2453,95
551,62	2742,53
551,71	2867,27
551,80	2737,56
551,89	2397,68
551,99	2192,48
552,08	2226,61
552,17	2086,50
552,26	2500,73
552,36	1804,25
552,45	1875,20
552,54	1819,16
552,63	2526,04
552,73	3326,47
552,82	3282,85
552,91	2397,90
553,00	3826,11
553,10	2391,12
553,19	3304,55
553,28	2151,36
553,37	2444,68
553,46	1935,99
553,56	2716,76
553,65	1964,47
553,74	1879,72
553,83	2474,29
553,92	2261,41
554,02	2444,68
554,11	2199,72
554,20	1883,11
554,29	3206,02
554,38	2146,16
554,48	2236,78
554,57	2055,99
554,66	2101,19
554,75	2584,11
554,84	2633,38
554,94	2436,55
555,03	2042,88
555,12	1870,23
555,21	1900,29
555,30	3381,15
555,39	1994,07
555,49	2079,72
555,58	2485,81
555,67	2662,98
555,76	2852,35
555,85	1954,30
555,94	1940,97
556,03	2190,68
556,13	2292,14
556,22	2208,98
556,31	2355,42
556,40	1834,30
556,49	2789,76
556,58	2262,09
556,67	2274,29
556,77	2129,66
556,86	3059,35
556,95	2661,62
557,04	3230,20
557,13	3305,45
557,22	2970,09
557,31	2449,88
557,40	2289,43
557,50	3117,66
557,59	2029,55
557,68	2029,78
557,77	2926,70
557,86	2439,48
557,95	2350,22
558,04	2271,35
558,13	2264,57
558,22	2461,63
558,31	2230,00
558,41	1908,65
558,50	2638,57
558,59	2733,04
558,68	2924,67
558,77	2788,40
558,86	1886,50
558,95	1849,22
559,04	2411,01
559,13	3001,95
559,22	2053,96
559,31	2205,14
559,40	2011,25
559,49	2106,61
559,59	2730,78
559,68	1846,05
559,77	3104,33
559,86	3424,09
559,95	2401,97
560,04	2261,64
560,13	2530,78
560,22	3574,37
560,31	2510,67
560,40	2486,04
560,49	1862,32
560,58	2146,38
560,67	1929,21
560,76	1956,56
560,85	1770,80
560,94	2939,58
561,03	2077,23
561,12	4163,51
561,21	3692,11
561,30	2319,49
561,39	2234,74
561,48	2370,79
561,57	1868,88
561,66	2603,10
561,75	3294,60
561,84	2168,30
561,93	2124,01
562,02	2224,35
562,11	1919,05
562,20	2027,07
562,29	2347,06
562,38	1783,91
562,47	2797,21
562,56	2436,09
562,65	2096,67
562,74	2263,90
562,83	4102,04
562,92	2581,63
563,01	3130,54
563,10	1965,37
563,19	2154,07
563,28	4340,00
563,37	2956,08
563,46	1924,47
563,55	2139,15
563,64	4010,97
563,73	1966,73
563,82	2526,94
563,91	3298,90
564,00	2329,43
564,09	1958,14
564,18	2394,74
564,27	1851,25
564,35	2520,61
564,44	2323,33
564,53	2774,84
564,62	2686,71
564,71	2476,32
564,80	2493,95
564,89	2613,94
564,98	12920,11
565,07	2913,37
565,16	1953,85
565,25	5413,87
565,34	2196,55
565,43	2199,72
565,51	2008,99
565,60	3211,67
565,69	2124,01
565,78	3285,79
565,87	1780,07
565,96	1665,49
566,05	2626,60
566,14	3081,95
566,23	2527,84
566,32	3216,19
566,40	2815,29
566,49	3221,38
566,58	2123,79
566,67	2339,60
566,76	2019,38
566,85	2113,84
566,94	2395,42
567,03	2679,48
567,11	2239,04
567,20	2245,36
567,29	3065,46
567,38	2643,09
567,47	1909,55
567,56	2377,56
567,65	2403,10
567,73	1927,86
567,82	1930,57
567,91	2527,39
568,00	2322,88
568,09	3070,65
568,18	2060,96
568,27	2252,37
568,35	2419,37
568,44	2762,41
568,53	2530,33
568,62	1961,98
568,71	1931,25
568,80	2083,34
568,88	2772,58
568,97	3147,49
569,06	1929,67
569,15	2120,17
569,24	2558,58
569,32	2691,68
569,41	2356,55
569,50	1902,10
569,59	1826,84
569,68	1911,81
569,76	2311,13
569,85	2626,60
569,94	2786,14
570,03	2016,44
570,12	2649,87
570,20	2323,10
570,29	2592,70
570,38	2511,57
570,47	2533,27
570,56	1842,66
570,64	2153,16
570,73	2256,44
570,82	3185,00
570,91	2828,17
570,99	1937,35
571,08	1874,08
571,17	2061,19
571,26	2975,51
571,34	2077,23
571,43	2457,79
571,52	2594,06
571,61	1940,97
571,69	1899,39
571,78	2718,35
571,87	2943,20
571,96	2841,73
572,04	2791,57
572,13	2782,07
572,22	1995,65
572,31	1867,07
572,39	1968,99
572,48	2374,17
572,57	2133,28
572,66	2004,47
572,74	1801,99
572,83	2514,51
572,92	2139,83
573,00	1884,70
573,09	2599,93
573,18	2810,77
573,27	2680,61
573,35	2039,72
573,44	1875,88
573,53	2280,39
573,61	2280,62
573,70	2499,37
573,79	2001,08
573,87	3432,23
573,96	2096,22
574,05	2248,08
574,14	2239,49
574,22	2025,26
574,31	2751,79
574,40	1856,00
574,48	2294,40
574,57	2378,92
574,66	2198,59
574,74	2231,35
574,83	2909,30
574,92	2945,23
575,00	2207,63
575,09	2853,48
575,18	2101,19
575,26	3193,14
575,35	2087,85
575,43	2166,72
575,52	2689,65
575,61	2507,28
575,69	2803,54
575,78	2073,17
575,87	3513,58
575,95	2581,40
576,04	2048,76
576,13	2455,30
576,21	2129,44
576,30	2497,34
576,38	2457,79
576,47	2167,63
576,56	2114,29
576,64	2248,75
576,73	2806,03
576,82	2680,38
576,90	2386,15
576,99	2433,38
577,07	2181,86
577,16	2229,77
577,25	2627,73
577,33	3676,29
577,42	2471,35
577,50	2044,47
577,59	2607,16
577,68	3008,06
577,76	2354,97
577,85	2279,49
577,93	2458,69
578,02	2487,17
578,10	2355,42
578,19	2416,66
578,28	2191,35
578,36	2305,48
578,45	2378,02
578,53	1967,41
578,62	2124,01
578,70	2038,14
578,79	2356,32
578,88	2407,39
578,96	2007,40
579,05	2054,18
579,13	3431,55
579,22	2597,67
579,30	2197,00
579,39	2650,55
579,47	3299,35
579,56	2157,01
579,64	5021,56
579,73	2299,60
579,82	2620,50
579,90	2057,12
579,99	2128,31
580,07	2608,97
580,16	2439,48
580,24	2825,24
580,33	1806,73
580,41	2422,54
580,50	1955,88
580,58	2313,84
580,67	2205,14
580,75	2332,59
580,84	2284,69
580,92	1951,81
581,01	3349,06
581,09	2055,31
581,18	2214,86
581,26	2059,83
581,35	1863,45
581,43	2748,85
581,52	2310,22
581,60	2498,01
581,69	2266,38
581,77	2446,04
581,86	2524,68
581,94	2229,77
582,02	2848,06
582,11	1937,12
582,19	3122,63
582,28	3568,27
582,36	3444,20
582,45	3501,83
582,53	2065,93
582,62	2097,35
582,70	2059,38
582,79	2557,22
582,87	2027,52
582,96	2530,55
583,04	3140,93
583,12	2499,82
583,21	2406,94
583,29	2561,97
583,38	2558,80
583,46	2262,09
583,55	2439,94
583,63	1930,34
583,71	2571,46
583,80	2382,76
583,88	1942,55
583,97	3825,89
584,05	2594,51
584,13	2796,76
584,22	2697,33
584,30	2205,14
584,39	2721,06
584,47	2879,70
584,55	2046,05
584,64	2444,46
584,72	2514,28
584,81	1947,29
584,89	2054,41
584,97	2009,21
585,06	1988,65
585,14	2336,21
585,23	2485,81
585,31	1883,57
585,39	2217,57
585,48	2447,62
585,56	1911,59
585,64	2606,71
585,73	2368,98
585,81	2318,36
585,90	2701,17
585,98	2167,40
586,06	2257,12
586,15	3144,10
586,23	1911,14
586,31	2087,63
586,40	1939,84
586,48	3022,07
586,56	2069,32
586,65	1887,86
586,73	2041,30
586,81	2620,95
586,90	2231,58
586,98	1840,63
587,06	1860,74
587,15	2218,47
587,23	2168,53
587,31	2326,27
587,40	2065,71
587,48	1948,88
587,56	2930,09
587,65	3874,25
587,73	2738,01
587,81	2497,56
587,90	3418,67
587,98	2387,06
588,06	2081,08
588,14	2018,70
588,23	2145,25
588,31	3148,84
588,39	2702,30
588,48	2266,83
588,56	2058,25
588,64	2566,71
588,72	2440,16
588,81	2163,78
588,89	2257,12
588,97	2371,69
589,06	3027,94
589,14	2975,06
589,22	2485,36
589,30	2267,51
589,39	2064,35
589,47	2724,90
589,55	3294,60
589,63	2471,35
589,72	2175,99
589,80	2138,93
589,88	2559,25
589,96	2825,24
590,05	2429,54
590,13	2440,61
590,21	2893,71
590,29	3130,77
590,38	2728,97
590,46	3001,05
590,54	1938,71
590,62	2093,50
590,71	2849,42
590,79	2978,45
590,87	1899,61
590,95	2002,89
591,03	2249,43
591,12	2463,66
591,20	2169,43
591,28	3340,48
591,36	2576,43
591,44	2282,88
591,53	2366,94
591,61	2284,46
591,69	2047,40
591,77	2435,87
591,85	2392,93
591,94	2060,96
592,02	2161,75
592,10	2778,01
592,18	2759,70
592,26	2323,33
592,34	1976,22
592,43	1865,94
592,51	1921,31
592,59	2067,06
592,67	1994,07
592,75	2091,47
592,84	2266,16
592,92	2855,52
593,00	2164,69
593,08	2204,46
593,16	1977,12
593,24	2109,10
593,32	2700,04
593,41	2385,47
593,49	1906,84
593,57	2097,57
593,65	2101,87
593,73	2476,77
593,81	2583,66
593,89	2845,57
593,98	2268,41
594,06	2019,83
594,14	2010,34
594,22	2109,55
594,30	2100,06
594,38	2239,94
594,46	2855,74
594,54	2808,74
594,62	2732,13
594,71	2241,52
594,79	2072,04
594,87	2259,60
594,95	2292,82
595,03	2860,26
595,11	2333,72
595,19	3235,62
595,27	2275,19
595,35	2079,04
595,43	2045,60
595,52	2134,63
595,60	2199,04
595,68	3446,24
595,76	1974,64
595,84	2619,14
595,92	2010,57
596,00	3039,24
596,08	2825,01
596,16	2386,15
596,24	2288,08
596,32	2165,59
596,40	2598,80
596,48	2574,40
596,56	2564,68
596,64	2003,79
596,73	3041,95
596,81	2103,22
596,89	2507,73
596,97	1873,85
597,05	4173,45
597,13	2257,79
597,21	1892,38
597,29	2190,00
597,37	2938,23
597,45	2543,21
597,53	2064,35
597,61	2402,42
597,69	2647,39
597,77	2241,07
597,85	2126,27
597,93	2353,16
598,01	2197,46
598,09	2732,58
598,17	2277,91
598,25	2388,86
598,33	1898,03
598,41	2172,82
598,49	1882,89
598,57	2029,10
598,65	2227,29
598,73	2304,12
598,81	2768,06
598,89	2273,39
598,97	1989,78
599,05	2972,80
599,13	2201,52
599,21	2028,65
599,29	2345,70
599,37	2161,53
599,45	2072,04
599,53	3148,17
599,61	2073,39
599,69	2529,20
599,77	2223,44
599,85	2071,36
599,93	2147,74
600,00	1946,39
600,08	2575,75
600,16	1830,23
600,24	1926,95
600,32	3130,54
600,40	3336,41
600,48	3003,99
600,56	2856,42
600,64	2846,25
600,72	2280,39
600,80	2319,71
600,88	2250,56
600,96	2880,15
601,04	1952,04
601,12	2044,01
601,19	1759,73
601,27	2112,49
601,35	2310,45
601,43	2033,62
601,51	2399,48
601,59	2028,65
601,67	1906,84
601,75	2114,29
601,83	2362,20
601,91	1855,54
601,98	1949,33
602,06	2816,42
602,14	2425,70
602,22	2516,77
602,30	2703,66
602,38	2365,36
602,46	1970,57
602,54	2865,24
602,61	2537,33
602,69	2429,09
602,77	1864,36
602,85	1945,03
602,93	1952,04
603,01	2333,72
603,09	2866,59
603,17	2141,64
603,24	2478,13
603,32	1873,40
603,40	2329,20
603,48	2578,92
603,56	1840,63
603,64	1899,16
603,71	1968,54
603,79	2233,61
603,87	2386,38
603,95	3662,28
604,03	2234,74
604,11	2826,14
604,18	2434,29
604,26	2034,52
604,34	1872,95
604,42	2401,29
604,50	1969,44
604,57	2011,47
604,65	2200,17
604,73	2242,20
604,81	2385,93
604,89	1975,77
604,96	2131,47
605,04	2538,01
605,12	2172,37
605,20	2668,18
605,28	3077,21
605,35	2335,08
605,43	2429,54
605,51	2157,01
605,59	2696,65
605,67	3428,16
605,74	2261,64
605,82	2335,76
605,90	1975,09
605,98	2568,29
606,05	2270,67
606,13	2562,64
606,21	2331,69
606,29	2196,33
606,36	2268,87
606,44	2048,31
606,52	2344,35
606,60	2187,74
606,67	1850,35
606,75	2093,73
606,83	1788,20
606,91	2723,54
606,98	1989,55
607,06	2257,57
607,14	2183,45
607,22	2144,12
607,29	2014,86
607,37	2321,97
607,45	2518,35
607,52	2665,47
607,60	2591,80
607,68	2258,02
607,76	2495,53
607,83	1806,28
607,91	2538,24
607,99	2461,18
608,06	2396,77
608,14	2105,26
608,22	2240,39
608,30	2945,01
608,37	1935,99
608,45	1743,91
608,53	2330,11
608,60	2393,38
608,68	1992,49
608,76	2157,68
608,83	2644,22
608,91	1931,02
608,99	2632,70
609,06	2423,67
609,14	2533,49
609,22	2190,45
609,29	2019,16
609,37	1846,28
609,45	2747,27
609,52	1975,09
609,60	1935,32
609,68	2044,92
609,75	2229,77
609,83	1777,58
609,91	3330,08
609,98	2124,46
610,06	2060,28
610,13	2510,22
610,21	2318,36
610,29	2303,89
610,36	1811,03
610,44	2058,25
610,52	2239,94
610,59	1917,69
610,67	1905,03
610,74	2266,83
610,82	1984,35
610,90	2435,87
610,97	2093,96
611,05	2483,10
611,13	2332,82
611,20	3095,29
611,28	1965,60
611,35	2204,69
611,43	1807,18
611,51	2421,41
611,58	2353,84
611,66	2977,55
611,73	1957,69
611,81	2958,57
611,88	2411,24
611,96	2629,99
612,04	1944,13
612,11	1938,48
612,19	3084,66
612,26	2115,65
612,34	2276,78
612,41	2179,60
612,49	1770,80
612,57	1794,98
612,64	1908,88
612,72	2924,67
612,79	3416,41
612,87	1803,57
612,94	1745,26
613,02	2266,16
613,09	2164,01
613,17	2488,97
613,24	2091,70
613,32	2647,39
613,40	2062,32
613,47	2175,54
613,55	1884,47
613,62	2764,67
613,70	2839,25
613,77	1999,72
613,85	2722,19
613,92	2162,66
614,00	1875,88
614,07	2069,32
614,15	1743,91
614,22	1875,88
614,30	2406,72
614,37	1858,26
614,45	2094,86
614,52	1942,55
614,60	2098,48
614,67	2572,36
614,75	1750,24
614,82	2454,85
614,90	2009,66
614,97	1868,20
615,05	3066,59
615,12	2625,69
615,20	2271,35
615,27	2237,00
615,34	2187,74
615,42	1907,75
615,49	2181,64
615,57	1805,38
615,64	1946,62
615,72	2020,29
615,79	2006,27
615,87	2415,98
615,94	2827,95
616,02	2299,60
616,09	2820,49
616,16	2412,59
616,24	2254,86
616,31	1875,66
616,39	2878,79
616,46	2745,01
616,54	2321,07
616,61	3155,40
616,68	1910,23
616,76	2158,14
616,83	2459,37
616,91	1971,70
616,98	1918,37
617,06	2720,15
617,13	1979,38
617,20	2041,08
617,28	2196,55
617,35	1884,70
617,43	2813,03
617,50	2061,64
617,57	2199,26
>>>>>End Processed Spectral Data<<<<<
