SpectraSuite Datei
++++++++++++++++++++++++++++++++++++
Datum: Fri Jan 02 02:00:20 CET 2004
Benutzer: Student
Dark-Spektrum vorhanden: Nein
Referenz-Spektrum vorhanden: Nein
Zahl der probierten Teilspektren: 1
Spektrometer: USB2+H04734
Integrationszeit (usec): 30000000 (USB2+H04734)
Spektren Durchschnitt berechnet: 10 (USB2+H04734)
Boxcar Glättung: 0 (USB2+H04734)
Dunkelstromkorrektur: Nein (USB2+H04734)
Puls/Lampe aktiviert: Nein (USB2+H04734)
Correct for Detector Non-linearity: Nein (USB2+H04734)
Streulichtkorrektur: Nein (USB2+H04734)
Anzahl Pixel in verarbeitetem Spektrum: 2048
>>>>>Begin Processed Spectral Data<<<<<
418,45	1363,81
418,57	1363,81
418,69	1363,81
418,80	1287,65
418,92	1256,01
419,04	7553,70
419,16	3660,69
419,28	3791,76
419,40	3298,44
419,52	3851,88
419,64	3182,52
419,75	3336,41
419,87	3502,28
419,99	3031,11
420,11	3286,24
420,23	3524,20
420,35	4772,76
420,47	3956,73
420,58	3263,87
420,70	4129,16
420,82	3825,21
420,94	4650,50
421,06	6030,80
421,18	4768,91
421,29	4175,03
421,41	3462,96
421,53	4172,32
421,65	5400,31
421,77	5310,37
421,89	4117,41
422,00	6357,57
422,12	3954,25
422,24	3748,60
422,36	5794,65
422,48	5654,77
422,59	4161,02
422,71	5341,78
422,83	3392,91
422,95	3736,62
423,07	5018,40
423,18	6260,85
423,30	5405,96
423,42	3735,27
423,54	4278,53
423,66	3750,86
423,77	4526,21
423,89	3940,91
424,01	3584,99
424,13	3288,73
424,25	3554,71
424,36	4686,66
424,48	4356,50
424,60	3923,29
424,72	6060,18
424,84	3914,02
424,95	5697,93
425,07	4377,51
425,19	4358,98
425,31	4639,20
425,42	3314,04
425,54	4939,08
425,66	4691,85
425,78	3766,68
425,89	4300,90
426,01	3865,89
426,13	4091,64
426,25	5729,57
426,36	3965,77
426,48	4975,91
426,60	5141,56
426,72	4062,49
426,83	5211,39
426,95	4868,57
427,07	4099,33
427,19	6994,84
427,30	4364,86
427,42	3231,78
427,54	3494,37
427,66	3984,08
427,77	3642,84
427,89	4523,27
428,01	4834,00
428,12	4914,67
428,24	3245,79
428,36	3474,03
428,48	3214,38
428,59	3392,68
428,71	4377,74
428,83	3348,16
428,94	3799,00
429,06	3779,79
429,18	4981,79
429,30	4267,01
429,41	3814,59
429,53	5383,81
429,65	5176,59
429,76	4787,22
429,88	3755,38
430,00	4680,33
430,11	5841,88
430,23	3944,76
430,35	6433,50
430,47	3826,79
430,58	3413,24
430,70	5373,42
430,82	4632,19
430,93	9071,40
431,05	4370,28
431,17	4087,35
431,28	5442,12
431,40	3590,64
431,52	6485,25
431,63	3323,98
431,75	3288,28
431,87	3970,29
431,98	5328,67
432,10	4392,20
432,22	3951,99
432,33	5748,55
432,45	4250,74
432,56	4410,05
432,68	5112,86
432,80	3828,60
432,91	5170,26
433,03	4424,52
433,15	5875,33
433,26	4533,44
433,38	4030,85
433,50	3105,68
433,61	5392,40
433,73	6125,94
433,84	4038,09
433,96	3410,53
434,08	4175,26
434,19	3945,43
434,31	3913,80
434,43	4340,68
434,54	4134,81
434,66	3161,50
434,77	3133,25
434,89	5173,65
435,01	4589,71
435,12	3418,22
435,24	3840,13
435,35	3748,60
435,47	6701,52
435,59	4211,19
435,70	3592,90
435,82	4192,88
435,93	5568,89
436,05	4410,05
436,17	3998,54
436,28	4856,60
436,40	4657,50
436,51	3408,50
436,63	4001,02
436,74	5534,09
436,86	6466,72
436,98	10787,29
437,09	3909,05
437,21	5220,88
437,32	3457,99
437,44	5129,58
437,55	3780,24
437,67	14716,45
437,79	7708,05
437,90	4754,23
438,02	3609,17
438,13	38490,97
438,25	5987,41
438,36	5229,24
438,48	4742,93
438,59	5606,18
438,71	4464,52
438,83	3652,33
438,94	3351,78
439,06	5686,86
439,17	5384,49
439,29	3663,41
439,40	4349,72
439,52	3930,29
439,63	4822,25
439,75	3400,14
439,86	3306,58
439,98	4208,93
440,09	5289,58
440,21	4090,51
440,32	3752,44
440,44	3100,71
440,55	4224,30
440,67	3815,04
440,78	5796,91
440,90	3451,89
441,01	3855,27
441,13	3479,00
441,24	4645,75
441,36	6036,68
441,47	3612,33
441,59	5316,70
441,70	3334,83
441,82	5406,86
441,93	4724,62
442,05	3090,09
442,16	3628,83
442,28	3143,42
442,39	4098,65
442,51	5201,67
442,62	3779,11
442,74	5323,02
442,85	4064,07
442,97	6911,23
443,08	5175,23
443,20	5044,84
443,31	4641,23
443,43	3719,68
443,54	4696,60
443,66	3111,33
443,77	3577,31
443,88	3159,01
444,00	4394,23
444,11	5239,41
444,23	5903,80
444,34	3428,16
444,46	3429,51
444,57	5943,57
444,69	5530,70
444,80	4716,26
444,91	7683,64
445,03	3257,99
445,14	5354,21
445,26	3111,78
445,37	3343,64
445,49	4336,61
445,60	5793,75
445,71	6555,31
445,83	4149,04
445,94	3362,17
446,06	5411,61
446,17	3270,42
446,29	2892,81
446,40	4071,53
446,51	5601,89
446,63	4106,11
446,74	3579,34
446,86	3638,55
446,97	5720,08
447,08	3559,45
447,20	3844,19
447,31	3174,83
447,43	4106,56
447,54	4340,68
447,65	4888,91
447,77	3437,65
447,88	4019,33
448,00	4496,60
448,11	3110,65
448,22	3620,02
448,34	4455,25
448,45	3028,17
448,56	3869,95
448,68	4552,65
448,79	5806,40
448,90	4846,65
449,02	3839,45
449,13	3744,08
449,25	4622,70
449,36	3706,57
449,47	3906,79
449,59	6094,76
449,70	4247,35
449,81	3645,10
449,93	4009,16
450,04	3704,31
450,15	3822,27
450,27	4004,19
450,38	4744,96
450,49	3783,18
450,61	6466,50
450,72	3947,92
450,83	5175,01
450,95	3843,06
451,06	4774,11
451,17	6455,20
451,29	5147,44
451,40	3582,73
451,51	3087,38
451,63	3219,58
451,74	5516,24
451,85	3853,68
451,97	5317,83
452,08	4217,29
452,19	3456,18
452,31	5869,45
452,42	4103,39
452,53	6279,61
452,65	5630,59
452,76	3193,59
452,87	3274,94
452,98	3417,54
453,10	3998,09
453,21	3297,99
453,32	3683,97
453,44	3281,72
453,55	2960,83
453,66	7699,23
453,77	4810,95
453,89	5060,88
454,00	6360,06
454,11	4428,13
454,23	4175,48
454,34	4248,93
454,45	3068,85
454,56	4793,77
454,68	6863,32
454,79	4111,98
454,90	4464,74
455,01	3278,56
455,13	3064,33
455,24	6136,34
455,35	3525,11
455,46	2740,04
455,58	3006,47
455,69	5835,33
455,80	4728,92
455,91	3158,34
456,03	3981,14
456,14	5182,01
456,25	3459,80
456,36	3182,29
456,48	3873,57
456,59	5852,50
456,70	3488,95
456,81	5559,18
456,92	6660,16
457,04	5118,96
457,15	7724,54
457,26	3157,66
457,37	3899,78
457,49	3462,06
457,60	3122,86
457,71	4154,02
457,82	4817,73
457,93	4255,48
458,05	5579,51
458,16	3337,09
458,27	3794,93
458,38	4196,73
458,49	4817,27
458,61	3804,65
458,72	4367,79
458,83	3940,24
458,94	4889,14
459,05	4698,63
459,17	10764,24
459,28	3625,67
459,39	4028,82
459,50	3071,56
459,61	5270,37
459,72	3131,22
459,84	3279,01
459,95	4081,47
460,06	10444,70
460,17	3499,79
460,28	3895,94
460,39	4033,34
460,51	4570,73
460,62	3939,11
460,73	3905,21
460,84	2785,24
460,95	5960,30
461,06	6463,78
461,18	5860,18
461,29	5693,86
461,40	4161,92
461,51	4594,00
461,62	8002,28
461,73	4012,78
461,84	4766,20
461,96	4670,84
462,07	5082,80
462,18	3587,70
462,29	3997,64
462,40	5318,28
462,51	3884,87
462,62	6062,67
462,73	6871,91
462,85	5071,96
462,96	4922,81
463,07	5354,89
463,18	7474,38
463,29	5009,36
463,40	3704,54
463,51	3203,53
463,62	3323,53
463,73	5170,49
463,85	3387,03
463,96	4278,98
464,07	4128,93
464,18	3967,81
464,29	3219,12
464,40	6229,89
464,51	4274,01
464,62	3842,84
464,73	3135,74
464,84	4869,02
464,95	3891,20
465,06	4022,72
465,18	2892,81
465,29	4374,57
465,40	3660,92
465,51	3986,56
465,62	5033,09
465,73	3978,43
465,84	4475,59
465,95	4591,97
466,06	3600,13
466,17	4048,71
466,28	3919,22
466,39	5479,63
466,50	2988,85
466,61	2560,38
466,72	4405,53
466,83	2990,43
466,95	3246,24
467,06	2861,17
467,17	3871,08
467,28	3419,35
467,39	3805,10
467,50	4669,71
467,61	2932,13
467,72	3026,59
467,83	3114,72
467,94	4304,97
468,05	2986,36
468,16	4488,92
468,27	4071,31
468,38	3048,51
468,49	5448,67
468,60	3217,77
468,71	5665,16
468,82	5356,92
468,93	5130,26
469,04	6254,52
469,15	3952,21
469,26	3533,47
469,37	3897,07
469,48	5657,25
469,59	4250,96
469,70	3124,89
469,81	3990,40
469,92	2698,23
470,03	4933,88
470,14	3106,36
470,25	5194,21
470,36	4116,50
470,47	2881,28
470,58	2949,98
470,69	5024,73
470,80	5027,66
470,91	3237,88
471,02	3512,00
471,13	4209,15
471,24	4299,32
471,35	3528,27
471,46	6094,30
471,56	5222,24
471,67	5409,58
471,78	5878,72
471,89	2725,58
472,00	3360,36
472,11	4753,32
472,22	5284,38
472,33	3838,54
472,44	4232,43
472,55	3416,41
472,66	3936,62
472,77	3701,15
472,88	7254,50
472,99	5351,50
473,10	2862,07
473,21	3637,19
473,32	3709,73
473,42	2993,37
473,53	3219,35
473,64	4342,26
473,75	4450,28
473,86	4140,23
473,97	4488,70
474,08	4465,87
474,19	5313,76
474,30	7224,44
474,41	4595,36
474,52	3542,96
474,62	4147,01
474,73	3329,63
474,84	6822,87
474,95	4784,51
475,06	4839,87
475,17	3211,67
475,28	2719,02
475,39	4012,10
475,50	3136,64
475,60	2931,22
475,71	3157,88
475,82	5236,47
475,93	3260,03
476,04	5709,23
476,15	3717,87
476,26	4496,38
476,37	3473,81
476,47	3517,42
476,58	3420,25
476,69	2754,28
476,80	2765,58
476,91	3717,64
477,02	4092,10
477,13	3996,96
477,23	3253,02
477,34	4179,10
477,45	4377,96
477,56	3579,34
477,67	3546,35
477,78	4071,53
477,89	3966,68
477,99	3528,27
478,10	4894,79
478,21	4514,01
478,32	4049,16
478,43	3588,61
478,54	6731,80
478,64	4491,86
478,75	3909,05
478,86	3336,41
478,97	3925,77
479,08	3686,68
479,18	3313,59
479,29	3531,21
479,40	3009,86
479,51	2651,46
479,62	3315,62
479,72	3394,94
479,83	2860,94
479,94	4382,26
480,05	4391,75
480,16	3175,74
480,26	4297,97
480,37	3024,10
480,48	4910,38
480,59	3926,22
480,70	3977,75
480,80	3709,51
480,91	3173,25
481,02	2845,80
481,13	4221,13
481,24	4022,95
481,34	3005,34
481,45	7002,98
481,56	3479,00
481,67	3585,22
481,77	3473,13
481,88	3384,54
481,99	4911,74
482,10	4337,06
482,20	10701,64
482,31	3556,74
482,42	4497,51
482,53	3365,11
482,63	5852,28
482,74	4903,15
482,85	3105,00
482,96	3229,75
483,06	2832,02
483,17	4548,13
483,28	3105,23
483,39	3838,09
483,49	4737,95
483,60	7415,17
483,71	3229,07
483,81	5101,33
483,92	3742,95
484,03	3752,90
484,14	3445,33
484,24	3064,55
484,35	3764,19
484,46	3918,77
484,57	3399,91
484,67	4429,04
484,78	3390,65
484,89	7069,64
484,99	3457,08
485,10	3818,66
485,21	4389,26
485,31	4317,17
485,42	4226,10
485,53	3393,58
485,63	3749,05
485,74	6260,40
485,85	8096,28
485,96	15034,86
486,06	3763,06
486,17	3995,60
486,28	4300,00
486,38	2774,62
486,49	4941,11
486,60	3018,68
486,70	3117,43
486,81	3477,42
486,92	3216,86
487,02	3251,44
487,13	2556,99
487,24	3467,48
487,34	3140,03
487,45	6144,02
487,56	3764,87
487,66	3058,90
487,77	4160,79
487,87	3427,25
487,98	2625,47
488,09	3632,22
488,19	2594,73
488,30	7353,93
488,41	3399,46
488,51	2801,28
488,62	3150,20
488,73	3212,34
488,83	3912,21
488,94	4533,89
489,04	6083,23
489,15	3209,63
489,26	2989,07
489,36	4189,95
489,47	3434,71
489,58	2997,44
489,68	4400,79
489,79	3113,82
489,89	3887,81
490,00	3427,93
490,11	4257,74
490,21	4264,07
490,32	2981,84
490,42	3783,63
490,53	3947,69
490,64	2923,54
490,74	3036,98
490,85	2850,32
490,95	4958,29
491,06	4337,06
491,16	3183,19
491,27	4388,36
491,38	3368,72
491,48	6828,97
491,59	7484,10
491,69	4397,62
491,80	2710,44
491,90	5744,48
492,01	2890,77
492,12	4642,36
492,22	3409,85
492,33	5229,69
492,43	3916,06
492,54	2875,40
492,64	3039,69
492,75	3937,30
492,86	4079,67
492,96	3630,86
493,07	3197,43
493,17	4137,29
493,28	4669,93
493,38	4171,42
493,49	3267,71
493,59	4429,49
493,70	4023,40
493,80	3152,46
493,91	2850,77
494,01	3123,31
494,12	3288,50
494,22	5157,83
494,33	6025,60
494,43	5772,28
494,54	6346,95
494,64	4442,37
494,75	3163,76
494,86	5291,16
494,96	3138,22
495,07	3596,74
495,17	5547,20
495,28	3514,71
495,38	3144,10
495,49	3762,39
495,59	4333,22
495,69	3783,40
495,80	5729,79
495,90	3549,51
496,01	2907,95
496,11	4249,61
496,22	3538,44
496,32	2934,61
496,43	4882,13
496,53	3453,24
496,64	3548,38
496,74	4144,75
496,85	4591,29
496,95	4010,97
497,06	3297,54
497,16	4323,73
497,27	3703,86
497,37	5441,44
497,48	2907,72
497,58	2974,61
497,68	3379,35
497,79	5023,37
497,89	3363,30
498,00	3839,90
498,10	2787,50
498,21	5153,08
498,31	3344,09
498,42	3186,58
498,52	5271,05
498,62	3803,06
498,73	3836,28
498,83	4387,46
498,94	3291,89
499,04	5319,18
499,15	3540,25
499,25	3011,90
499,35	4695,02
499,46	6134,75
499,56	7071,00
499,67	4590,39
499,77	2664,79
499,87	3013,03
499,98	3207,83
500,08	2479,93
500,19	3300,48
500,29	3768,49
500,39	4315,82
500,50	5017,50
500,60	3793,12
500,71	3806,68
500,81	3954,92
500,91	2867,04
501,02	3398,55
501,12	4429,71
501,22	2896,65
501,33	4000,35
501,43	4739,54
501,54	2745,92
501,64	3234,27
501,74	3345,67
501,85	5659,29
501,95	3102,07
502,05	3141,61
502,16	3452,56
502,26	5854,54
502,37	4573,67
502,47	4094,36
502,57	3559,23
502,68	3200,59
502,78	2958,11
502,88	5017,27
502,99	3612,79
503,09	4958,51
503,19	2935,52
503,30	2705,92
503,40	3054,61
503,50	3300,70
503,61	3710,18
503,71	3482,62
503,81	3493,02
503,92	3944,76
504,02	5011,85
504,12	8624,18
504,23	5432,63
504,33	3599,23
504,43	3521,94
504,54	4826,99
504,64	4718,29
504,74	8669,60
504,84	3996,96
504,95	3388,16
505,05	2487,17
505,15	5549,91
505,26	2846,48
505,36	3252,12
505,46	3230,42
505,56	4327,12
505,67	4357,40
505,77	4214,80
505,87	3022,75
505,98	2664,11
506,08	3281,27
506,18	3679,68
506,28	3917,86
506,39	3669,28
506,49	3331,66
506,59	3332,79
506,70	2814,84
506,80	3947,24
506,90	6400,74
507,00	2606,26
507,11	3859,33
507,21	4981,11
507,31	4562,82
507,41	3833,57
507,52	3340,70
507,62	3627,70
507,72	5250,48
507,82	5126,87
507,93	3407,59
508,03	4940,66
508,13	4086,90
508,23	3662,05
508,34	4122,38
508,44	3011,90
508,54	3043,08
508,64	3776,17
508,74	2630,67
508,85	3233,81
508,95	3589,06
509,05	2744,33
509,15	3465,45
509,26	4214,13
509,36	3008,96
509,46	3859,56
509,56	2853,26
509,66	3715,61
509,77	3017,55
509,87	3343,87
509,97	3624,31
510,07	3874,02
510,17	2524,23
510,28	7416,53
510,38	4910,61
510,48	3274,49
510,58	4265,42
510,68	3824,08
510,78	3812,56
510,89	3232,91
510,99	2576,88
511,09	4794,22
511,19	4480,79
511,29	2809,42
511,39	5026,08
511,50	5299,07
511,60	2761,28
511,70	4573,44
511,80	4873,32
511,90	5172,29
512,00	3654,14
512,11	3002,41
512,21	3890,07
512,31	2732,13
512,41	5829,68
512,51	3984,30
512,61	7049,98
512,71	3187,03
512,82	3248,05
512,92	2457,79
513,02	4280,57
513,12	3429,29
513,22	3146,58
513,32	4765,98
513,42	4020,23
513,53	5070,83
513,63	4324,63
513,73	4701,57
513,83	2792,47
513,93	4288,47
514,03	4436,72
514,13	5750,13
514,23	3044,44
514,33	3425,67
514,44	3387,03
514,54	3276,07
514,64	6322,32
514,74	3392,45
514,84	3358,78
514,94	4688,01
515,04	4543,61
515,14	4006,45
515,24	4261,58
515,34	3979,10
515,44	2457,11
515,55	2460,95
515,65	4390,84
515,75	3151,33
515,85	3406,46
515,95	4437,17
516,05	5502,68
516,15	4157,18
516,25	2849,64
516,35	3032,01
516,45	3119,69
516,55	3058,45
516,65	3560,81
516,75	6714,40
516,85	4426,32
516,95	4780,67
517,05	5190,15
517,16	2809,64
517,26	7569,29
517,36	3159,92
517,46	2600,38
517,56	4005,54
517,66	3538,21
517,76	3176,19
517,86	3152,46
517,96	4232,21
518,06	2909,75
518,16	2996,98
518,26	4099,78
518,36	2849,87
518,46	3260,71
518,56	4627,45
518,66	4994,67
518,76	3761,26
518,86	4897,50
518,96	2942,52
519,06	3180,03
519,16	4271,30
519,26	3454,37
519,36	4232,43
519,46	3815,49
519,56	5532,28
519,66	6720,05
519,76	3100,26
519,86	3185,23
519,96	3907,47
520,06	3460,47
520,16	6195,77
520,26	3699,79
520,36	3212,34
520,46	3192,01
520,56	3114,72
520,66	3364,21
520,76	3115,17
520,86	3427,03
520,96	5308,79
521,06	4300,00
521,16	2857,10
521,26	3470,19
521,35	4342,71
521,45	2740,04
521,55	3305,68
521,65	4307,23
521,75	3187,26
521,85	2470,44
521,95	3622,28
522,05	2606,49
522,15	2903,43
522,25	23689,32
522,35	5072,86
522,45	3377,31
522,55	4684,85
522,65	3655,72
522,75	2974,61
522,85	3172,35
522,94	3438,10
523,04	4472,42
523,14	3853,46
523,24	2815,29
523,34	2973,48
523,44	3836,51
523,54	3020,49
523,64	2871,56
523,74	5754,65
523,84	4451,63
523,94	4144,52
524,03	2648,74
524,13	3989,50
524,23	4053,23
524,33	2886,70
524,43	3465,22
524,53	3699,56
524,63	3081,50
524,73	3424,32
524,83	2754,96
524,92	3438,10
525,02	2615,07
525,12	4625,42
525,22	3733,69
525,32	2868,17
525,42	5172,29
525,52	3770,75
525,61	4258,87
525,71	2545,47
525,81	4096,39
525,91	2867,04
526,01	3833,35
526,11	3929,16
526,21	4667,22
526,30	4122,38
526,40	3194,72
526,50	4147,46
526,60	4621,12
526,70	4528,69
526,80	4406,89
526,89	3396,97
526,99	3001,73
527,09	3912,21
527,19	4121,70
527,29	4650,73
527,39	3631,09
527,48	4239,89
527,58	4166,90
527,68	2813,26
527,78	5347,66
527,88	6753,95
527,97	3676,51
528,07	2961,50
528,17	5025,40
528,27	5287,77
528,37	3547,48
528,46	3090,77
528,56	6075,09
528,66	4606,21
528,76	2741,85
528,86	4865,63
528,95	2991,56
529,05	3881,71
529,15	3891,42
529,25	4763,04
529,35	4886,43
529,44	4523,95
529,54	5674,43
529,64	4456,15
529,74	3505,44
529,83	2952,24
529,93	3372,11
530,03	4196,73
530,13	3838,54
530,22	5375,00
530,32	5245,51
530,42	4758,52
530,52	2505,24
530,61	4853,66
530,71	2862,75
530,81	4858,63
530,91	3629,06
531,00	3560,58
531,10	3463,86
531,20	4351,30
531,30	3740,69
531,39	4095,71
531,49	4210,74
531,59	9568,34
531,69	8146,90
531,78	7188,74
531,88	8690,17
531,98	9135,35
532,07	7292,01
532,17	7837,76
532,27	7740,36
532,37	5203,03
532,46	4897,95
532,56	4237,18
532,66	2931,22
532,75	3679,23
532,85	3952,44
532,95	3708,83
533,04	3687,13
533,14	4095,49
533,24	4568,92
533,34	3330,76
533,43	4625,87
533,53	2594,73
533,63	4302,49
533,72	3490,98
533,82	2967,38
533,92	2940,71
534,01	7768,84
534,11	8582,60
534,21	4509,94
534,30	3446,24
534,40	3587,25
534,50	2665,47
534,59	3282,85
534,69	2967,38
534,79	3947,01
534,88	5676,69
534,98	5030,83
535,08	2434,74
535,17	4570,50
535,27	3446,69
535,36	3074,95
535,46	4257,29
535,56	2803,54
535,65	4290,28
535,75	4864,73
535,85	3977,52
535,94	3237,43
536,04	3647,14
536,14	4577,96
536,23	5665,39
536,33	3251,67
536,42	4020,91
536,52	3484,65
536,62	2625,92
536,71	4134,81
536,81	3787,70
536,90	3792,67
537,00	3975,26
537,10	3110,65
537,19	3823,40
537,29	4401,92
537,38	5140,88
537,48	3753,80
537,58	3746,79
537,67	3016,19
537,77	3472,23
537,86	3231,55
537,96	5353,08
538,06	3514,03
538,15	2916,76
538,25	6423,11
538,34	7225,57
538,44	6534,07
538,53	4349,26
538,63	5428,56
538,73	4659,09
538,82	3786,12
538,92	3491,66
539,01	6656,10
539,11	2834,28
539,20	7116,20
539,30	4403,73
539,39	3265,00
539,49	4384,97
539,59	4596,72
539,68	7459,92
539,78	7186,25
539,87	4575,02
539,97	4764,62
540,06	4723,27
540,16	3086,47
540,25	4548,81
540,35	6077,58
540,44	4695,24
540,54	6352,83
540,63	4253,22
540,73	3495,50
540,82	4789,48
540,92	3357,88
541,01	5388,33
541,11	5692,73
541,20	4245,31
541,30	4268,14
541,39	4872,19
541,49	4291,86
541,58	6292,04
541,68	5974,53
541,77	4410,51
541,87	2986,14
541,96	2973,48
542,06	5173,65
542,15	4492,09
542,25	6372,94
542,34	5127,32
542,44	3406,01
542,53	3925,32
542,63	4594,68
542,72	3551,77
542,82	3489,63
542,91	4105,43
543,01	3360,82
543,10	5067,66
543,20	3956,73
543,29	4441,24
543,38	3274,04
543,48	3905,21
543,57	3619,79
543,67	3557,42
543,76	3796,28
543,86	3665,67
543,95	4631,97
544,05	6685,93
544,14	7731,55
544,23	4246,22
544,33	3637,19
544,42	4961,23
544,52	3752,44
544,61	4349,26
544,71	6305,60
544,80	7029,87
544,89	6319,38
544,99	4791,51
545,08	6011,82
545,18	3248,05
545,27	8234,81
545,36	6666,04
545,46	5424,94
545,55	4315,37
545,65	4642,14
545,74	4124,86
545,84	3408,50
545,93	4641,23
546,02	4087,35
546,12	5583,36
546,21	5335,68
546,30	4535,25
546,40	4695,47
546,49	3548,83
546,59	4660,89
546,68	3728,26
546,77	5578,61
546,87	4617,73
546,96	5632,17
547,05	4833,77
547,15	3540,02
547,24	4219,55
547,34	3595,61
547,43	4317,63
547,52	5724,37
547,62	4838,06
547,71	5171,62
547,80	5085,06
547,90	4156,95
547,99	6824,68
548,08	4771,85
548,18	2887,61
548,27	3354,94
548,36	3294,83
548,46	3616,63
548,55	3523,30
548,64	4474,68
548,74	3356,52
548,83	4443,95
548,92	6819,93
549,02	3491,43
549,11	8102,84
549,20	5173,20
549,30	3813,01
549,39	4421,80
549,48	4661,80
549,58	3174,83
549,67	4897,95
549,76	4339,77
549,85	3169,41
549,95	4014,81
550,04	5239,86
550,13	3095,96
550,23	5020,88
550,32	3498,89
550,41	3328,05
550,50	4679,65
550,60	6578,36
550,69	4181,36
550,78	3002,41
550,88	5385,40
550,97	5107,89
551,06	4133,00
551,15	4266,78
551,25	6400,28
551,34	3313,81
551,43	3913,57
551,52	4712,87
551,62	5630,36
551,71	5758,94
551,80	5499,74
551,89	4594,23
551,99	4083,73
552,08	4161,25
552,17	3673,58
552,26	4894,33
552,36	3025,46
552,45	3198,11
552,54	3003,08
552,63	4944,28
552,73	7174,50
552,82	6923,89
552,91	4539,09
553,00	8532,21
553,10	4502,71
553,19	6986,93
553,28	3929,84
553,37	5516,01
553,46	3361,04
553,56	5463,59
553,65	3509,51
553,74	3222,74
553,83	4873,09
553,92	4159,89
554,02	4826,77
554,11	4079,67
554,20	3253,93
554,29	6860,38
554,38	3886,68
554,48	4150,40
554,57	3669,96
554,66	3858,66
554,75	5121,67
554,84	5198,73
554,94	4722,59
555,03	3683,52
555,12	3153,59
555,21	3296,86
555,30	7333,59
555,39	3472,68
555,49	3756,51
555,58	4845,30
555,67	5378,39
555,76	5929,56
555,85	3436,97
555,94	3432,00
556,03	4027,69
556,13	4344,97
556,22	4116,50
556,31	4442,82
556,40	3070,43
556,49	5721,43
556,58	4238,08
556,67	4264,52
556,77	3883,51
556,86	6457,01
556,95	5328,00
557,04	6852,02
557,13	7058,57
557,22	6183,57
557,31	4805,75
557,40	4252,77
557,50	6574,74
557,59	3561,49
557,68	3638,77
557,77	6091,14
557,86	4757,39
557,95	4571,41
558,04	4337,29
558,13	4228,59
558,22	4836,71
558,31	4103,17
558,41	3291,21
558,50	5338,16
558,59	5549,46
558,68	6018,82
558,77	5624,48
558,86	3231,55
558,95	3109,30
559,04	4721,23
559,13	6196,22
559,22	3672,90
559,31	4027,46
559,40	3547,93
559,49	3813,01
559,59	5548,33
559,68	3144,32
559,77	6574,97
559,86	7322,97
559,95	4581,12
560,04	4234,01
560,13	4925,52
560,22	7859,23
560,31	4916,71
560,40	4829,25
560,49	3160,82
560,58	3886,00
560,67	3365,34
560,76	3413,92
560,85	2934,39
560,94	6148,76
561,03	3713,12
561,12	9653,08
561,21	8319,78
561,30	4398,30
561,39	4263,16
561,48	4486,44
561,57	3205,79
561,66	5243,25
561,75	7190,32
561,84	3947,69
561,93	3963,29
562,02	4193,56
562,11	3352,23
562,20	3609,17
562,29	4449,15
562,38	2935,29
562,47	5671,72
562,56	4695,92
562,65	3838,32
562,74	4218,19
562,83	9390,71
562,92	5104,50
563,01	6703,33
563,10	3387,71
563,19	4500,67
563,28	10180,75
563,37	6123,23
563,46	3366,24
563,55	3947,92
563,64	9206,09
563,73	3418,89
563,82	5063,60
563,91	7185,12
564,00	4405,76
564,09	3408,05
564,18	4627,45
564,27	3135,74
564,35	5040,77
564,44	4447,11
564,53	5620,64
564,62	5433,76
564,71	4818,86
564,80	4929,81
564,89	5176,36
564,98	49165,26
565,07	5814,54
565,16	3482,85
565,25	13123,50
565,34	4009,16
565,43	4110,85
565,51	3582,73
565,60	6882,76
565,69	3830,41
565,78	7126,59
565,87	2929,41
565,96	2646,48
566,05	5305,85
566,14	6538,13
566,23	5035,57
566,32	6925,69
566,40	5814,76
566,49	6954,39
566,58	3815,94
566,67	4418,87
566,76	3543,41
566,85	3871,08
566,94	4644,40
567,03	5364,60
567,11	4163,96
567,20	4208,70
567,29	6456,10
567,38	5311,95
567,47	3232,23
567,56	4523,27
567,65	4683,04
567,73	3392,68
567,82	3360,14
567,91	5015,24
568,00	4357,63
568,09	5579,06
568,18	3650,75
568,27	4317,85
568,35	4701,57
568,44	5558,05
568,53	5011,62
568,62	3474,26
568,71	3335,51
568,80	3796,96
568,88	5662,68
568,97	6655,19
569,06	3329,63
569,15	3858,66
569,24	5113,54
569,32	5419,52
569,41	4517,85
569,50	3236,07
569,59	3024,10
569,68	3293,70
569,76	4405,76
569,85	5222,01
569,94	6170,46
570,03	3604,88
570,12	5347,20
570,20	4471,07
570,29	5141,11
570,38	4925,52
570,47	4934,11
570,56	3147,04
570,64	4019,33
570,73	4172,32
570,82	6854,74
570,91	5741,09
570,99	3358,56
571,08	3192,68
571,17	3714,70
571,26	6154,41
571,34	3702,28
571,43	4823,38
571,52	5129,81
571,61	3387,26
571,69	3245,56
571,78	5559,18
571,87	6094,08
571,96	5859,96
572,04	5598,04
572,13	5635,11
572,22	3574,14
572,31	3213,25
572,39	3520,81
572,48	4695,47
572,57	3934,13
572,66	3548,83
572,74	3003,76
572,83	5004,84
572,92	3962,61
573,00	3249,86
573,09	5156,47
573,18	5787,42
573,27	5068,12
573,35	3585,44
573,44	3205,57
573,53	4253,45
573,61	4281,24
573,70	5114,67
573,79	3533,69
573,87	7568,16
573,96	3716,74
574,05	4188,36
574,14	4156,27
574,22	3654,82
574,31	5598,27
574,40	3122,18
574,48	4352,43
574,57	4614,34
574,66	4060,68
574,74	4249,38
574,83	6057,47
574,92	6189,22
575,00	4068,59
575,09	6012,27
575,18	3838,77
575,26	6845,92
575,35	3816,62
575,43	3941,14
575,52	5462,68
575,61	5062,01
575,69	5707,87
575,78	3734,14
575,87	7867,82
575,95	5144,95
576,04	3640,81
576,13	4867,22
576,21	3890,07
576,30	4937,50
576,38	4751,29
576,47	4014,13
576,56	3884,87
576,64	4238,76
576,73	5737,25
576,82	5378,39
576,90	4628,80
576,99	4707,45
577,07	3958,54
577,16	4221,13
577,25	5205,29
577,33	8117,07
577,42	4696,15
577,50	3728,49
577,59	5185,40
577,68	6310,34
577,76	4460,45
577,85	4312,65
577,93	4773,66
578,02	4860,89
578,10	4726,20
578,19	4739,31
578,28	4121,02
578,36	4339,55
578,45	4619,09
578,53	3474,48
578,62	3844,64
578,70	3669,06
578,79	4295,48
578,88	4554,46
578,96	3596,29
579,05	3640,58
579,13	7508,73
579,22	5137,49
579,30	4101,59
579,39	5235,34
579,47	7068,51
579,56	3986,11
579,64	12076,29
579,73	4346,78
579,82	5196,70
579,90	3676,51
579,99	3846,90
580,07	5181,11
580,16	4678,52
580,24	5741,54
580,33	3039,24
580,41	4757,16
580,50	3408,72
580,58	4412,31
580,67	4102,72
580,75	4418,87
580,84	4359,43
580,92	3433,58
581,01	7169,08
581,09	3694,59
581,18	4196,27
581,26	3709,28
581,35	3229,07
581,43	5648,89
581,52	4395,14
581,60	4955,12
581,69	4324,63
581,77	4786,77
581,86	4958,97
581,94	4178,65
582,02	5896,57
582,11	3387,93
582,19	6595,08
582,28	7975,38
582,36	7500,59
582,45	7581,50
582,53	3729,62
582,62	3861,14
582,70	3679,68
582,79	5107,66
582,87	3566,01
582,96	4983,15
583,04	6739,03
583,12	4895,24
583,21	4709,48
583,29	5039,19
583,38	5052,52
583,46	4288,70
583,55	4725,07
583,63	3436,07
583,71	5207,09
583,80	4652,08
583,88	3367,82
583,97	8668,02
584,05	5238,96
584,13	5729,79
584,22	5439,41
584,30	4084,64
584,39	5505,39
584,47	6004,14
584,55	3736,62
584,64	4799,20
584,72	4794,90
584,81	3377,09
584,89	3657,08
584,97	3583,86
585,06	3522,85
585,14	4454,57
585,23	4931,85
585,31	3240,14
585,39	4133,68
585,48	4815,47
585,56	3350,19
585,64	5052,97
585,73	4508,58
585,81	4456,61
585,90	5533,41
585,98	4064,75
586,06	4304,75
586,15	6648,64
586,23	3303,64
586,31	3791,31
586,40	3427,03
586,48	6326,16
586,56	3730,75
586,65	3253,70
586,73	3588,61
586,81	5219,30
586,90	4154,02
586,98	3203,31
587,06	3197,20
587,15	4185,65
587,23	4109,27
587,31	4393,10
587,40	3736,40
587,48	3421,15
587,56	6120,52
587,65	8694,01
587,73	5541,78
587,81	4876,93
587,90	7452,46
587,98	4620,44
588,06	3712,90
588,14	3598,32
588,23	3972,10
588,31	6678,02
588,39	5459,74
588,48	4287,12
588,56	3743,86
588,64	5038,51
588,72	4783,38
588,81	4005,32
588,89	4297,97
588,97	4512,65
589,06	6371,81
589,14	6178,37
589,22	4906,54
589,30	4263,62
589,39	3744,31
589,47	5522,34
589,55	7201,84
589,63	4814,56
589,72	4034,47
589,80	3887,81
589,88	5201,90
589,96	5748,78
590,05	4652,98
590,13	4773,43
590,21	5994,19
590,29	6664,68
590,38	5543,58
590,46	6280,29
590,54	3406,69
590,62	3822,50
590,71	5905,61
590,79	6373,62
590,87	3294,60
590,95	3586,35
591,03	4193,34
591,12	4807,78
591,20	3996,96
591,28	7277,10
591,36	5048,91
591,44	4215,03
591,53	4508,36
591,61	4388,81
591,69	3732,11
591,77	4685,30
591,85	4728,01
591,94	3738,88
592,02	3994,02
592,10	5715,33
592,18	5569,35
592,26	4440,34
592,34	3490,08
592,43	3156,30
592,51	3374,15
592,59	3761,71
592,67	5438,50
592,75	3874,25
592,84	4240,11
592,92	5838,72
593,00	4007,58
593,08	4083,73
593,16	3464,54
593,24	3894,59
593,32	5437,82
593,41	4592,42
593,49	3315,17
593,57	3824,98
593,65	3713,57
593,73	4872,87
593,81	5106,31
593,89	5867,19
593,98	4216,84
594,06	3552,00
594,14	3591,09
594,22	3828,60
594,30	3846,90
594,38	4154,02
594,46	5849,56
594,54	5694,77
594,62	5445,51
594,71	4227,01
594,79	3778,88
594,87	4317,63
594,95	4322,60
595,03	5896,34
595,11	4408,02
595,19	6889,76
595,27	4245,09
595,35	3742,27
595,43	3692,11
595,52	3939,78
595,60	4089,84
595,68	7517,09
595,76	3487,59
595,84	5249,58
595,92	3533,01
596,00	6410,23
596,08	5793,75
596,16	4595,13
596,24	4318,53
596,32	3986,56
596,40	5184,50
596,48	5125,29
596,56	5056,59
596,64	3512,68
596,73	6328,42
596,81	3799,00
596,89	4831,51
596,97	3142,74
597,05	9597,94
597,13	4153,56
597,21	3213,70
597,29	4058,42
597,37	6120,52
597,45	5040,09
597,53	3720,35
597,61	4663,38
597,69	5358,28
597,77	4191,08
597,85	3814,81
597,93	4499,54
598,01	4107,69
598,09	5483,47
598,17	4304,52
598,25	4548,81
598,33	3255,73
598,41	4018,20
598,49	3253,93
598,57	3628,38
598,65	4136,39
598,73	4415,48
598,81	4721,46
598,89	4214,35
598,97	3434,03
599,05	6275,77
599,13	4025,66
599,21	3534,37
599,29	4517,62
599,37	4038,31
599,45	3695,50
599,53	6742,42
599,61	3701,60
599,69	4903,15
599,77	4140,91
599,85	3635,61
599,93	3962,16
600,00	3409,85
600,08	5089,36
600,16	3055,29
600,24	3403,53
600,32	6646,15
600,40	7168,40
600,48	6278,70
600,56	5852,05
600,64	5830,81
600,72	4223,39
600,80	4421,58
600,88	4177,29
600,96	6005,72
601,04	3387,71
601,12	3682,62
601,19	2930,54
601,27	3829,96
601,35	4350,39
601,43	3620,24
601,51	4591,97
601,59	3622,05
601,67	3280,37
601,75	3780,24
601,83	4447,57
601,91	3159,92
601,98	3375,05
602,06	5742,67
602,14	4631,74
602,22	4930,49
602,30	5429,46
602,38	4572,76
602,46	3439,91
602,54	5792,16
602,61	4935,69
602,69	4690,50
602,77	3141,61
602,85	3429,06
602,93	3462,96
603,01	4391,07
603,09	5846,17
603,17	3871,54
603,24	4875,13
603,32	3202,18
603,40	4385,65
603,48	5121,67
603,56	3098,22
603,64	4368,02
603,71	3448,72
603,79	4221,36
603,87	5318,73
603,95	8146,90
604,03	4045,09
604,11	5702,67
604,18	4681,68
604,26	3645,33
604,34	3140,71
604,42	4622,25
604,50	3487,37
604,57	3496,63
604,65	4045,77
604,73	4182,04
604,81	4476,94
604,89	3437,65
604,96	3940,01
605,04	4958,97
605,12	3979,56
605,20	5325,96
605,28	6469,66
605,35	4432,43
605,43	4579,54
605,51	3904,53
605,59	5420,87
605,67	7259,47
605,74	4144,98
605,82	4425,65
605,90	3403,30
605,98	5117,61
606,05	4239,89
606,13	5137,49
606,21	4415,48
606,29	4046,45
606,36	4259,78
606,44	3630,64
606,52	4410,28
606,60	4014,81
606,67	3116,30
606,75	3711,54
606,83	2901,17
606,91	5494,32
606,98	3477,87
607,06	4209,15
607,14	3937,98
607,22	3933,23
607,29	3587,02
607,37	4295,48
607,45	4881,68
607,52	5231,50
607,60	5210,03
607,68	4142,72
607,76	4810,49
607,83	2902,75
607,91	4964,84
607,99	4743,15
608,06	4596,26
608,14	3817,75
608,22	4159,89
608,30	6090,24
608,37	3275,17
608,45	2771,45
608,53	4448,02
608,60	4539,54
608,68	3518,78
608,76	3897,98
608,83	5226,53
608,91	3324,66
608,99	5248,68
609,06	4568,24
609,14	5059,08
609,22	4029,95
609,29	3536,18
609,37	3112,23
609,45	5522,34
609,52	3371,89
609,60	3384,77
609,68	3576,40
609,75	4192,43
609,83	2871,11
609,91	7132,69
609,98	3883,06
610,06	3657,08
610,13	4900,89
610,21	4396,72
610,29	4358,98
610,36	2966,02
610,44	3581,37
610,52	4155,37
610,59	3290,53
610,67	3227,71
610,74	4193,11
610,82	3429,74
610,90	4711,97
610,97	3756,51
611,05	4878,52
611,13	4394,91
611,20	6468,30
611,28	3435,84
611,35	4080,80
611,43	2938,45
611,51	4653,44
611,58	4387,00
611,66	6144,70
611,73	3360,59
611,81	6012,05
611,88	4609,60
611,96	5197,83
612,04	3306,35
612,11	3231,55
612,19	6534,52
612,26	3808,04
612,34	4182,49
612,41	3996,28
612,49	2845,35
612,57	2917,66
612,64	3233,81
612,72	5976,57
612,79	7276,64
612,87	2948,85
612,94	2817,10
613,02	4218,42
613,09	3895,94
613,17	4799,87
613,24	3700,69
613,32	5304,95
613,40	3580,92
613,47	3893,23
613,55	3138,45
613,62	5424,49
613,70	5744,03
613,77	3423,19
613,85	5490,03
613,92	3859,79
614,00	3126,25
614,07	3671,77
614,15	2787,50
614,22	3097,09
614,30	4487,11
614,37	3015,97
614,45	3641,94
614,52	3287,60
614,60	3736,62
614,67	5071,28
614,75	2804,90
614,82	4790,83
614,90	3521,94
614,97	3146,81
615,05	6285,48
615,12	5212,52
615,20	4133,45
615,27	4069,05
615,34	3913,12
615,42	3177,77
615,49	3965,77
615,57	2975,74
615,64	3250,99
615,72	3444,43
615,79	3420,70
615,87	4508,36
615,94	5698,38
616,02	4265,88
616,09	5567,99
616,16	4548,35
616,24	4072,21
616,31	3074,04
616,39	6881,18
616,46	5503,13
616,54	4274,69
616,61	6455,88
616,68	3133,25
616,76	3849,62
616,83	4603,27
616,91	3428,38
616,98	3214,83
617,06	5383,14
617,13	3318,10
617,20	3536,40
617,28	3968,94
617,35	3055,74
617,43	5584,94
617,50	3480,36
617,57	3856,85
>>>>>End Processed Spectral Data<<<<<
