SpectraSuite Datei
++++++++++++++++++++++++++++++++++++
Datum: Thu Jan 01 07:19:19 CET 2004
Benutzer: H. Stützler
Dark-Spektrum vorhanden: Nein
Referenz-Spektrum vorhanden: Nein
Zahl der probierten Teilspektren: 1
Spektrometer: USB2+H04734
Integrationszeit (usec): 100000 (USB2+H04734)
Spektren Durchschnitt berechnet: 1 (USB2+H04734)
Boxcar Glättung: 0 (USB2+H04734)
Dunkelstromkorrektur: Nein (USB2+H04734)
Puls/Lampe aktiviert: Nein (USB2+H04734)
Correct for Detector Non-linearity: Nein (USB2+H04734)
Streulichtkorrektur: Nein (USB2+H04734)
Anzahl Pixel in verarbeitetem Spektrum: 2048
>>>>>Begin Processed Spectral Data<<<<<
418,45	1618,04
418,57	1618,04
418,69	1618,04
418,80	1536,68
418,92	1511,82
419,04	1514,08
419,16	1421,43
419,28	1547,98
419,40	1482,45
419,52	1496,01
419,64	1507,30
419,75	1468,89
419,87	1557,02
419,99	1475,67
420,11	1496,01
420,23	1498,27
420,35	1568,32
420,47	1595,44
420,58	1543,46
420,70	1532,16
420,82	1507,30
420,94	1563,80
421,06	1568,32
421,18	1568,32
421,29	1604,48
421,41	1631,60
421,53	1627,08
421,65	1656,45
421,77	1656,45
421,89	1701,65
422,00	1649,67
422,12	1651,93
422,24	1676,79
422,36	1681,31
422,48	1724,25
422,59	1674,53
422,71	1658,71
422,83	1731,03
422,95	1703,91
423,07	1663,23
423,18	1733,29
423,30	1649,67
423,42	1778,48
423,54	1672,27
423,66	1701,65
423,77	1740,07
423,89	1697,13
424,01	1683,57
424,13	1706,17
424,25	1694,87
424,36	1679,05
424,48	1719,73
424,60	1681,31
424,72	1676,79
424,84	1719,73
424,95	1672,27
425,07	1665,49
425,19	1676,79
425,31	1679,05
425,42	1733,29
425,54	1640,63
425,66	1724,25
425,78	1638,38
425,89	1620,30
426,01	1721,99
426,13	1654,19
426,25	1690,35
426,36	1701,65
426,48	1762,67
426,60	1654,19
426,72	1706,17
426,83	1685,83
426,95	1672,27
427,07	1728,77
427,19	1640,63
427,30	1688,09
427,42	1728,77
427,54	1676,79
427,66	1679,05
427,77	1624,82
427,89	1654,19
428,01	1710,69
428,12	1676,79
428,24	1658,71
428,36	1590,92
428,48	1645,15
428,59	1624,82
428,71	1670,01
428,83	1717,47
428,94	1674,53
429,06	1726,51
429,18	1694,87
429,30	1706,17
429,41	1672,27
429,53	1721,99
429,65	1606,74
429,76	1717,47
429,88	1618,04
430,00	1679,05
430,11	1685,83
430,23	1670,01
430,35	1676,79
430,47	1685,83
430,58	1703,91
430,70	1719,73
430,82	1629,34
430,93	1712,95
431,05	1706,17
431,17	1681,31
431,28	1771,70
431,40	1697,13
431,52	1706,17
431,63	1715,21
431,75	1697,13
431,87	1631,60
431,98	1715,21
432,10	1731,03
432,22	1690,35
432,33	1717,47
432,45	1649,67
432,56	1660,97
432,68	1699,39
432,80	1670,01
432,91	1715,21
433,03	1679,05
433,15	1712,95
433,26	1731,03
433,38	1674,53
433,50	1694,87
433,61	1660,97
433,73	1676,79
433,84	1674,53
433,96	1701,65
434,08	1751,37
434,19	1699,39
434,31	1690,35
434,43	1758,15
434,54	1690,35
434,66	1692,61
434,77	1731,03
434,89	1726,51
435,01	1746,85
435,12	1629,34
435,24	1667,75
435,35	1688,09
435,47	1710,69
435,59	1746,85
435,70	1683,57
435,82	1697,13
435,93	1744,59
436,05	1699,39
436,17	1703,91
436,28	1611,26
436,40	1699,39
436,51	1663,23
436,63	1670,01
436,74	1638,38
436,86	1613,52
436,98	1681,31
437,09	1690,35
437,21	1631,60
437,32	1721,99
437,44	1735,55
437,55	1676,79
437,67	1710,69
437,79	1724,25
437,90	1717,47
438,02	1706,17
438,13	1834,98
438,25	1712,95
438,36	1703,91
438,48	1685,83
438,59	1721,99
438,71	1699,39
438,83	1717,47
438,94	1735,55
439,06	1685,83
439,17	1731,03
439,29	1633,86
439,40	1733,29
439,52	1688,09
439,63	1672,27
439,75	1749,11
439,86	1706,17
439,98	1624,82
440,09	1679,05
440,21	1670,01
440,32	1692,61
440,44	1746,85
440,55	1703,91
440,67	1751,37
440,78	1789,78
440,90	1719,73
441,01	1627,08
441,13	1703,91
441,24	1762,67
441,36	1737,81
441,47	1731,03
441,59	1733,29
441,70	1656,45
441,82	1697,13
441,93	1629,34
442,05	1660,97
442,16	1737,81
442,28	1724,25
442,39	1740,07
442,51	1683,57
442,62	1744,59
442,74	1658,71
442,85	1733,29
442,97	1667,75
443,08	1665,49
443,20	1758,15
443,31	1719,73
443,43	1776,22
443,54	1731,03
443,66	1706,17
443,77	1679,05
443,88	1740,07
444,00	1658,71
444,11	1737,81
444,23	1667,75
444,34	1697,13
444,46	1792,04
444,57	1679,05
444,69	1758,15
444,80	1740,07
444,91	1645,15
445,03	1710,69
445,14	1690,35
445,26	1733,29
445,37	1690,35
445,49	1710,69
445,60	1728,77
445,71	1681,31
445,83	1699,39
445,94	1688,09
446,06	1697,13
446,17	1731,03
446,29	1724,25
446,40	1667,75
446,51	1715,21
446,63	1602,22
446,74	1760,41
446,86	1706,17
446,97	1712,95
447,08	1688,09
447,20	1706,17
447,31	1688,09
447,43	1778,48
447,54	1706,17
447,65	1751,37
447,77	1683,57
447,88	1710,69
448,00	1620,30
448,11	1674,53
448,22	1699,39
448,34	1649,67
448,45	1701,65
448,56	1681,31
448,68	1764,93
448,79	1606,74
448,90	1701,65
449,02	1697,13
449,13	1706,17
449,25	1699,39
449,36	1719,73
449,47	1688,09
449,59	1708,43
449,70	1703,91
449,81	1717,47
449,93	1773,96
450,04	1690,35
450,15	1699,39
450,27	1778,48
450,38	1683,57
450,49	1710,69
450,61	1724,25
450,72	1633,86
450,83	1762,67
450,95	1701,65
451,06	1670,01
451,17	1731,03
451,29	1726,51
451,40	1690,35
451,51	1773,96
451,63	1746,85
451,74	1731,03
451,85	1724,25
451,97	1712,95
452,08	1731,03
452,19	1751,37
452,31	1647,41
452,42	1710,69
452,53	1683,57
452,65	1776,22
452,76	1726,51
452,87	1751,37
452,98	1708,43
453,10	1651,93
453,21	1672,27
453,32	1699,39
453,44	1676,79
453,55	1807,86
453,66	1706,17
453,77	1744,59
453,89	1683,57
454,00	1767,19
454,11	1773,96
454,23	1740,07
454,34	1767,19
454,45	1697,13
454,56	1735,55
454,68	1728,77
454,79	1690,35
454,90	1674,53
455,01	1676,79
455,13	1622,56
455,24	1712,95
455,35	1685,83
455,46	1801,08
455,58	1706,17
455,69	1731,03
455,80	1710,69
455,91	1708,43
456,03	1703,91
456,14	1710,69
456,25	1679,05
456,36	1753,63
456,48	1760,41
456,59	1760,41
456,70	1755,89
456,81	1676,79
456,92	1744,59
457,04	1751,37
457,15	1762,67
457,26	1654,19
457,37	1776,22
457,49	1712,95
457,60	1726,51
457,71	1755,89
457,82	1764,93
457,93	1780,74
458,05	1717,47
458,16	1753,63
458,27	1717,47
458,38	1694,87
458,49	1778,48
458,61	1683,57
458,72	1728,77
458,83	1819,16
458,94	1762,67
459,05	1758,15
459,17	1796,56
459,28	1783,00
459,39	1717,47
459,50	1755,89
459,61	1712,95
459,72	1656,45
459,84	1715,21
459,95	1721,99
460,06	1737,81
460,17	1805,60
460,28	1726,51
460,39	1742,33
460,51	1699,39
460,62	1706,17
460,73	1701,65
460,84	1690,35
460,95	1735,55
461,06	1749,11
461,18	1787,52
461,29	1703,91
461,40	1692,61
461,51	1665,49
461,62	1712,95
461,73	1717,47
461,84	1762,67
461,96	1737,81
462,07	1731,03
462,18	1787,52
462,29	1755,89
462,40	1749,11
462,51	1706,17
462,62	1746,85
462,73	1708,43
462,85	1701,65
462,96	1717,47
463,07	1721,99
463,18	1771,70
463,29	1681,31
463,40	1642,89
463,51	1758,15
463,62	1821,42
463,73	1726,51
463,85	1794,30
463,96	1710,69
464,07	1769,44
464,18	1733,29
464,29	1796,56
464,40	1737,81
464,51	1742,33
464,62	1726,51
464,73	1792,04
464,84	1773,96
464,95	1794,30
465,06	1746,85
465,18	1712,95
465,29	1731,03
465,40	1749,11
465,51	1783,00
465,62	1712,95
465,73	1735,55
465,84	1801,08
465,95	1792,04
466,06	1712,95
466,17	1785,26
466,28	1719,73
466,39	1728,77
466,50	1740,07
466,61	1733,29
466,72	1776,22
466,83	1733,29
466,95	1778,48
467,06	1758,15
467,17	1740,07
467,28	1703,91
467,39	1785,26
467,50	1611,26
467,61	1785,26
467,72	1731,03
467,83	1731,03
467,94	1712,95
468,05	1789,78
468,16	1742,33
468,27	1701,65
468,38	1798,82
468,49	1778,48
468,60	1740,07
468,71	1778,48
468,82	1728,77
468,93	1742,33
469,04	1717,47
469,15	1758,15
469,26	1753,63
469,37	1735,55
469,48	1755,89
469,59	1794,30
469,70	1735,55
469,81	1753,63
469,92	1794,30
470,03	1855,32
470,14	1672,27
470,25	1685,83
470,36	1832,72
470,47	1724,25
470,58	1753,63
470,69	1744,59
470,80	1737,81
470,91	1728,77
471,02	1685,83
471,13	1785,26
471,24	1749,11
471,35	1751,37
471,46	1762,67
471,56	1764,93
471,67	1753,63
471,78	1785,26
471,89	1728,77
472,00	1798,82
472,11	1787,52
472,22	1767,19
472,33	1694,87
472,44	1832,72
472,55	1697,13
472,66	1731,03
472,77	1771,70
472,88	1758,15
472,99	1721,99
473,10	1728,77
473,21	1751,37
473,32	1819,16
473,42	1767,19
473,53	1751,37
473,64	1783,00
473,75	1737,81
473,86	1760,41
473,97	1753,63
474,08	1764,93
474,19	1805,60
474,30	1694,87
474,41	1742,33
474,52	1724,25
474,62	1805,60
474,73	1737,81
474,84	1812,38
474,95	1798,82
475,06	1742,33
475,17	1660,97
475,28	1719,73
475,39	1733,29
475,50	1724,25
475,60	1807,86
475,71	1830,46
475,82	1780,74
475,93	1819,16
476,04	1740,07
476,15	1792,04
476,26	1764,93
476,37	1792,04
476,47	1735,55
476,58	1771,70
476,69	1753,63
476,80	1830,46
476,91	1785,26
477,02	1771,70
477,13	1792,04
477,23	1764,93
477,34	1719,73
477,45	1728,77
477,56	1758,15
477,67	1690,35
477,78	1814,64
477,89	1783,00
477,99	1740,07
478,10	1742,33
478,21	1812,38
478,32	1825,94
478,43	1805,60
478,54	1814,64
478,64	1848,54
478,75	1724,25
478,86	1810,12
478,97	1798,82
479,08	1746,85
479,18	1832,72
479,29	1821,42
479,40	1798,82
479,51	1760,41
479,62	1794,30
479,72	1819,16
479,83	1726,51
479,94	1789,78
480,05	1767,19
480,16	1780,74
480,26	1755,89
480,37	1830,46
480,48	1751,37
480,59	1837,24
480,70	1767,19
480,80	1746,85
480,91	1742,33
481,02	1783,00
481,13	1803,34
481,24	1773,96
481,34	1789,78
481,45	1819,16
481,56	1850,80
481,67	1798,82
481,77	1778,48
481,88	1798,82
481,99	1823,68
482,10	1767,19
482,20	1780,74
482,31	1828,20
482,42	1737,81
482,53	1821,42
482,63	1796,56
482,74	1864,36
482,85	1862,10
482,96	1844,02
483,06	1789,78
483,17	1767,19
483,28	1810,12
483,39	1807,86
483,49	1785,26
483,60	1841,76
483,71	1819,16
483,81	1846,28
483,92	1828,20
484,03	1812,38
484,14	1801,08
484,24	1819,16
484,35	1853,06
484,46	1848,54
484,57	1801,08
484,67	1853,06
484,78	1796,56
484,89	1871,14
484,99	1834,98
485,10	1751,37
485,21	1801,08
485,31	1821,42
485,42	1823,68
485,53	1857,58
485,63	1916,33
485,74	1810,12
485,85	1893,74
485,96	1805,60
486,06	1884,70
486,17	1785,26
486,28	1875,66
486,38	1855,32
486,49	1783,00
486,60	1807,86
486,70	1866,62
486,81	1780,74
486,92	1839,50
487,02	1816,90
487,13	1789,78
487,24	1821,42
487,34	1830,46
487,45	1871,14
487,56	1837,24
487,66	1839,50
487,77	1864,36
487,87	1776,22
487,98	1839,50
488,09	1764,93
488,19	1828,20
488,30	1875,66
488,41	1832,72
488,51	1889,22
488,62	1859,84
488,73	1859,84
488,83	1862,10
488,94	1834,98
489,04	1877,92
489,15	1807,86
489,26	1846,28
489,36	1846,28
489,47	1882,44
489,58	1925,37
489,68	1934,41
489,79	1825,94
489,89	1783,00
490,00	1923,11
490,11	1821,42
490,21	1886,96
490,32	1882,44
490,42	1911,81
490,53	1846,28
490,64	1866,62
490,74	1828,20
490,85	1893,74
490,95	1841,76
491,06	1855,32
491,16	1889,22
491,27	1873,40
491,38	1916,33
491,48	1900,52
491,59	1855,32
491,69	1828,20
491,80	1961,53
491,90	1896,00
492,01	1911,81
492,12	1886,96
492,22	1857,58
492,33	1886,96
492,43	1868,88
492,54	1846,28
492,64	1932,15
492,75	1864,36
492,86	1821,42
492,96	1916,33
493,07	1837,24
493,17	1882,44
493,28	1975,09
493,38	1959,27
493,49	1925,37
493,59	1868,88
493,70	1920,85
493,80	1918,59
493,91	1902,77
494,01	1877,92
494,12	1929,89
494,22	1846,28
494,33	1907,29
494,43	1909,55
494,54	1853,06
494,64	1873,40
494,75	1880,18
494,86	1934,41
494,96	1886,96
495,07	1929,89
495,17	1952,49
495,28	1970,57
495,38	1993,17
495,49	1896,00
495,59	1907,29
495,69	1959,27
495,80	1938,93
495,90	1907,29
496,01	1988,65
496,11	1807,86
496,22	1920,85
496,32	1844,02
496,43	1938,93
496,53	1929,89
496,64	1900,52
496,74	1977,35
496,85	1923,11
496,95	2031,58
497,06	1877,92
497,16	1916,33
497,27	1977,35
497,37	1943,45
497,48	1934,41
497,58	1886,96
497,68	1886,96
497,79	1981,87
497,89	1886,96
498,00	1907,29
498,10	1916,33
498,21	1957,01
498,31	1952,49
498,42	1959,27
498,52	1966,05
498,62	1929,89
498,73	1947,97
498,83	2018,03
498,94	1886,96
499,04	1936,67
499,15	1934,41
499,25	1941,19
499,35	1957,01
499,46	1981,87
499,56	1966,05
499,67	1979,61
499,77	1963,79
499,87	1916,33
499,98	1909,55
500,08	1932,15
500,19	1920,85
500,29	1934,41
500,39	1966,05
500,50	2004,47
500,60	1993,17
500,71	2011,25
500,81	1950,23
500,91	1907,29
501,02	1957,01
501,12	2076,78
501,22	1963,79
501,33	1961,53
501,43	1968,31
501,54	1979,61
501,64	2042,88
501,74	1995,43
501,85	2076,78
501,95	1905,03
502,05	2029,33
502,16	1995,43
502,26	1957,01
502,37	2036,10
502,47	2067,74
502,57	2074,52
502,68	1984,13
502,78	2033,84
502,88	1898,26
502,99	1999,95
503,09	2083,56
503,19	2015,77
503,30	2002,21
503,40	1952,49
503,50	2024,81
503,61	1993,17
503,71	2015,77
503,81	2020,29
503,92	2029,33
504,02	2072,26
504,12	2018,03
504,23	1997,69
504,33	1997,69
504,43	1984,13
504,54	1977,35
504,64	2094,86
504,74	1995,43
504,84	1993,17
504,95	2063,22
505,05	2004,47
505,15	2099,38
505,26	1981,87
505,36	2058,70
505,46	2106,16
505,56	2101,64
505,67	2079,04
505,77	2085,82
505,87	2128,76
505,98	2020,29
506,08	2140,06
506,18	2092,60
506,28	2020,29
506,39	2011,25
506,49	2099,38
506,59	2146,84
506,70	2038,36
506,80	2076,78
506,90	2106,16
507,00	2133,28
507,11	2151,36
507,21	2203,33
507,31	2131,02
507,41	2070,00
507,52	2088,08
507,62	2085,82
507,72	2110,68
507,82	2178,47
507,93	2160,40
508,03	2110,68
508,13	2126,50
508,23	2137,80
508,34	2203,33
508,44	2140,06
508,54	2126,50
508,64	2117,46
508,74	2115,20
508,85	2160,40
508,95	2128,76
509,05	2219,15
509,15	2187,51
509,26	2135,54
509,36	2192,03
509,46	2162,66
509,56	2194,29
509,66	2214,63
509,77	2244,01
509,87	2196,55
509,97	2228,19
510,07	2180,73
510,17	2162,66
510,28	2128,76
510,38	2187,51
510,48	2198,81
510,58	2173,95
510,68	2264,35
510,78	2223,67
510,89	2314,06
510,99	2228,19
511,09	2237,23
511,19	2271,13
511,29	2332,14
511,39	2180,73
511,50	2284,69
511,60	2196,55
511,70	2210,11
511,80	2210,11
511,90	2205,59
512,00	2282,43
512,11	2275,65
512,21	2295,98
512,31	2255,31
512,41	2293,72
512,51	2239,49
512,61	2291,47
512,71	2282,43
512,82	2289,21
512,92	2187,51
513,02	2266,61
513,12	2336,66
513,22	2363,78
513,32	2323,10
513,42	2300,50
513,53	2354,74
513,63	2334,40
513,73	2404,46
513,83	2411,24
513,93	2399,94
514,03	2332,14
514,13	2420,28
514,23	2390,90
514,33	2280,17
514,44	2463,21
514,54	2458,69
514,64	2406,72
514,74	2420,28
514,84	2458,69
514,94	2402,20
515,04	2436,09
515,14	2458,69
515,24	2490,33
515,34	2418,02
515,44	2424,80
515,55	2433,83
515,65	2460,95
515,75	2431,57
515,85	2490,33
515,95	2476,77
516,05	2503,89
516,15	2501,63
516,25	2551,35
516,35	2521,97
516,45	2388,64
516,55	2427,05
516,65	2528,75
516,75	2589,76
516,85	2607,84
516,95	2562,64
517,05	2680,16
517,16	2605,58
517,26	2603,32
517,36	2567,16
517,46	2587,50
517,56	2560,38
517,66	2524,23
517,76	2677,90
517,86	2666,60
517,96	2641,74
518,06	2623,66
518,16	2686,94
518,26	2707,27
518,36	2680,16
518,46	2657,56
518,56	2734,39
518,66	2738,91
518,76	2822,52
518,86	2763,77
518,96	2772,81
519,06	2775,07
519,16	2838,34
519,26	2926,48
519,36	2869,98
519,46	2890,32
519,56	2940,04
519,66	3046,25
519,76	2921,96
519,86	2962,63
519,96	3120,82
520,06	3260,93
520,16	3220,25
520,26	3301,61
520,36	3340,03
520,46	3401,04
520,56	3484,65
520,66	3518,55
520,76	3660,92
520,86	3547,93
520,96	3597,65
521,06	3672,22
521,16	3701,60
521,26	3728,72
521,35	3914,02
521,45	3837,19
521,55	3764,87
521,65	3848,49
521,75	4006,67
521,85	4225,88
521,95	4521,92
522,05	4711,74
522,15	4946,76
522,25	5014,56
522,35	5202,12
522,45	5211,16
522,55	5217,94
522,65	5312,85
522,75	5245,06
522,85	5290,26
522,94	5202,12
523,04	5025,86
523,14	4811,17
523,24	4725,30
523,34	4465,42
523,44	4121,93
523,54	4020,23
523,64	3891,42
523,74	3769,39
523,84	3681,26
523,94	3839,45
524,03	3798,77
524,13	3837,19
524,23	3823,63
524,33	3834,93
524,43	3821,37
524,53	3830,41
524,63	3968,26
524,73	3995,38
524,83	3875,60
524,92	4074,47
525,02	4182,94
525,12	4097,07
525,22	4130,96
525,32	4194,24
525,42	4115,15
525,52	4182,94
525,61	4388,59
525,71	4422,48
525,81	4413,44
525,91	4415,70
526,01	4542,25
526,11	4603,27
526,21	4709,48
526,30	4718,52
526,40	4775,02
526,50	5023,60
526,60	4969,36
526,70	5062,01
526,80	5263,14
526,89	5428,11
526,99	5568,22
527,09	5800,98
527,19	5995,32
527,29	6133,17
527,39	6630,33
527,48	6935,41
527,58	7324,10
527,68	7809,96
527,78	8284,53
527,88	8704,86
527,97	8960,22
528,07	9373,76
528,17	9796,35
528,27	10214,42
528,37	10501,42
528,46	10948,86
528,56	11366,93
528,66	11947,71
528,76	12747,69
528,86	13348,80
528,95	14203,02
529,05	14867,41
529,15	16135,17
529,25	17527,22
529,35	19217,57
529,44	21213,00
529,54	23637,80
529,64	25843,39
529,74	29526,91
529,83	33013,82
529,93	36132,38
530,03	39316,48
530,13	42030,53
530,22	45300,50
530,32	49261,98
530,42	52489,02
530,52	56631,28
530,61	60748,69
530,71	65535,00
530,81	65535,00
530,91	65535,00
531,00	65535,00
531,10	65535,00
531,20	65535,00
531,30	65535,00
531,39	65535,00
531,49	65535,00
531,59	65535,00
531,69	65535,00
531,78	65535,00
531,88	65535,00
531,98	65535,00
532,07	65535,00
532,17	65535,00
532,27	65535,00
532,37	65535,00
532,46	65535,00
532,56	65535,00
532,66	65535,00
532,75	65535,00
532,85	65535,00
532,95	65119,19
533,04	59144,21
533,14	54439,25
533,24	49546,72
533,34	44421,43
533,43	38984,29
533,53	34548,24
533,63	31052,29
533,72	27877,23
533,82	24943,98
533,92	22657,03
534,01	20702,28
534,11	19233,39
534,21	17642,47
534,30	16591,65
534,40	15102,43
534,50	14225,61
534,59	13152,20
534,69	12320,58
534,79	11760,14
534,88	10899,15
534,98	10476,56
535,08	9715,00
535,17	9292,41
535,27	8962,48
535,36	8467,57
535,46	8266,45
535,56	7861,94
535,65	7656,30
535,75	7231,45
535,85	7041,62
535,94	6847,28
536,04	6704,91
536,14	6510,56
536,23	6318,48
536,33	6252,94
536,42	6139,95
536,52	5999,84
536,62	5846,17
536,71	5694,77
536,81	5730,92
536,90	5527,54
537,00	5410,03
537,10	5584,03
537,19	5367,09
537,29	5423,59
537,38	5462,00
537,48	5226,98
537,58	5265,40
537,67	5281,22
537,77	5263,14
537,86	5319,63
537,96	5457,48
538,06	5446,18
538,15	5371,61
538,25	5500,42
538,34	5222,46
538,44	5154,67
538,53	4856,37
538,63	4973,88
538,73	4917,38
538,82	4822,47
538,92	4682,36
539,01	4488,02
539,11	4429,26
539,20	4404,40
539,30	4438,30
539,39	4372,77
539,49	4359,21
539,59	4280,11
539,68	4187,46
539,78	4074,47
539,87	4106,11
539,97	3880,12
540,06	3859,79
540,16	3859,79
540,25	3914,02
540,35	3981,82
540,44	3685,78
540,54	3787,47
540,63	3683,52
540,73	3543,41
540,82	3593,13
540,92	3450,76
541,01	3432,68
541,11	3312,91
541,20	3466,58
541,30	3308,39
541,39	3321,95
541,49	3152,46
541,58	3100,48
541,68	3107,26
541,77	3016,87
541,87	3039,47
541,96	2985,23
542,06	3012,35
542,15	2917,44
542,25	2910,66
542,34	2962,63
542,44	2915,18
542,53	2847,38
542,63	2840,60
542,72	2836,08
542,82	2888,06
542,91	2897,10
543,01	2779,59
543,10	2856,42
543,20	2770,55
543,29	2795,41
543,38	2736,65
543,48	2736,65
543,57	2770,55
543,67	2589,76
543,76	2612,36
543,86	2637,22
543,95	2625,92
544,05	2580,72
544,14	2551,35
544,23	2594,28
544,33	2562,64
544,42	2449,65
544,52	2472,25
544,61	2646,26
544,71	2508,41
544,80	2449,65
544,89	2481,29
544,99	2463,21
545,08	2451,91
545,18	2515,19
545,27	2490,33
545,36	2440,61
545,46	2433,83
545,55	2438,35
545,65	2386,38
545,74	2372,82
545,84	2343,44
545,93	2357,00
546,02	2497,11
546,12	2454,17
546,21	2347,96
546,30	2327,62
546,40	2314,06
546,49	2316,32
546,59	2293,72
546,68	2273,39
546,77	2341,18
546,87	2318,58
546,96	2228,19
547,05	2201,07
547,15	2192,03
547,24	2307,28
547,34	2277,91
547,43	2212,37
547,52	2250,79
547,62	2196,55
547,71	2153,62
547,80	2248,53
547,90	2178,47
547,99	2207,85
548,08	2182,99
548,18	2146,84
548,27	2112,94
548,36	2115,20
548,46	2088,08
548,55	2133,28
548,64	2146,84
548,74	2128,76
548,83	2070,00
548,92	2097,12
549,02	2015,77
549,11	2128,76
549,20	2049,66
549,30	2081,30
549,39	2076,78
549,48	2060,96
549,58	2176,21
549,67	2094,86
549,76	2092,60
549,85	2092,60
549,95	2121,98
550,04	2117,46
550,13	2101,64
550,23	2135,54
550,32	2124,24
550,41	2167,17
550,50	2212,37
550,60	2230,45
550,69	2381,86
550,78	2341,18
550,88	2415,76
550,97	2397,68
551,06	2436,09
551,15	2411,24
551,25	2427,05
551,34	2273,39
551,43	2169,43
551,52	2115,20
551,62	2031,58
551,71	2178,47
551,80	2088,08
551,89	2090,34
551,99	1990,91
552,08	2051,92
552,17	2042,88
552,26	1995,43
552,36	2045,14
552,45	2022,55
552,54	1923,11
552,63	1981,87
552,73	1950,23
552,82	1941,19
552,91	1884,70
553,00	1914,07
553,10	1916,33
553,19	1920,85
553,28	1844,02
553,37	1896,00
553,46	1941,19
553,56	1923,11
553,65	1850,80
553,74	1920,85
553,83	1900,52
553,92	1839,50
554,02	1936,67
554,11	1873,40
554,20	1853,06
554,29	1880,18
554,38	1900,52
554,48	1816,90
554,57	1825,94
554,66	1830,46
554,75	1871,14
554,84	1950,23
554,94	1862,10
555,03	1905,03
555,12	1855,32
555,21	1812,38
555,30	1952,49
555,39	1871,14
555,49	1771,70
555,58	1875,66
555,67	1868,88
555,76	1853,06
555,85	1823,68
555,94	1778,48
556,03	1834,98
556,13	1821,42
556,22	1778,48
556,31	1740,07
556,40	1805,60
556,49	1825,94
556,58	1751,37
556,67	1859,84
556,77	1735,55
556,86	1710,69
556,95	1762,67
557,04	1846,28
557,13	1785,26
557,22	1755,89
557,31	1816,90
557,40	1792,04
557,50	1819,16
557,59	1740,07
557,68	1746,85
557,77	1796,56
557,86	1767,19
557,95	1778,48
558,04	1758,15
558,13	1771,70
558,22	1622,56
558,31	1703,91
558,41	1706,17
558,50	1724,25
558,59	1706,17
558,68	1679,05
558,77	1715,21
558,86	1740,07
558,95	1692,61
559,04	1769,44
559,13	1753,63
559,22	1749,11
559,31	1706,17
559,40	1663,23
559,49	1733,29
559,59	1679,05
559,68	1703,91
559,77	1708,43
559,86	1645,15
559,95	1733,29
560,04	1624,82
560,13	1647,41
560,22	1692,61
560,31	1674,53
560,40	1703,91
560,49	1731,03
560,58	1656,45
560,67	1613,52
560,76	1581,88
560,85	1651,93
560,94	1717,47
561,03	1649,67
561,12	1683,57
561,21	1667,75
561,30	1590,92
561,39	1679,05
561,48	1579,62
561,57	1640,63
561,66	1699,39
561,75	1651,93
561,84	1636,12
561,93	1636,12
562,02	1624,82
562,11	1599,96
562,20	1627,08
562,29	1606,74
562,38	1575,10
562,47	1649,67
562,56	1624,82
562,65	1609,00
562,74	1599,96
562,83	1651,93
562,92	1570,58
563,01	1645,15
563,10	1552,50
563,19	1559,28
563,28	1642,89
563,37	1679,05
563,46	1590,92
563,55	1606,74
563,64	1638,38
563,73	1534,42
563,82	1593,18
563,91	1579,62
564,00	1545,72
564,09	1572,84
564,18	1577,36
564,27	1597,70
564,35	1613,52
564,44	1606,74
564,53	1575,10
564,62	1609,00
564,71	1588,66
564,80	1588,66
564,89	1534,42
564,98	1613,52
565,07	1538,94
565,16	1609,00
565,25	1554,76
565,34	1568,32
565,43	1620,30
565,51	1593,18
565,60	1595,44
565,69	1624,82
565,78	1618,04
565,87	1649,67
565,96	1638,38
566,05	1609,00
566,14	1561,54
566,23	1602,22
566,32	1638,38
566,40	1629,34
566,49	1554,76
566,58	1593,18
566,67	1595,44
566,76	1550,24
566,85	1593,18
566,94	1615,78
567,03	1615,78
567,11	1597,70
567,20	1554,76
567,29	1538,94
567,38	1584,14
567,47	1581,88
567,56	1552,50
567,65	1529,90
567,73	1620,30
567,82	1557,02
567,91	1557,02
568,00	1577,36
568,09	1566,06
568,18	1620,30
568,27	1532,16
568,35	1563,80
568,44	1606,74
568,53	1527,64
568,62	1557,02
568,71	1577,36
568,80	1561,54
568,88	1559,28
568,97	1609,00
569,06	1613,52
569,15	1561,54
569,24	1572,84
569,32	1577,36
569,41	1507,30
569,50	1545,72
569,59	1534,42
569,68	1577,36
569,76	1550,24
569,85	1529,90
569,94	1543,46
570,03	1561,54
570,12	1547,98
570,20	1545,72
570,29	1590,92
570,38	1579,62
570,47	1584,14
570,56	1609,00
570,64	1536,68
570,73	1577,36
570,82	1613,52
570,91	1584,14
570,99	1579,62
571,08	1545,72
571,17	1602,22
571,26	1599,96
571,34	1550,24
571,43	1545,72
571,52	1491,49
571,61	1557,02
571,69	1568,32
571,78	1541,20
571,87	1563,80
571,96	1563,80
572,04	1568,32
572,13	1568,32
572,22	1584,14
572,31	1581,88
572,39	1529,90
572,48	1609,00
572,57	1570,58
572,66	1529,90
572,74	1568,32
572,83	1532,16
572,92	1468,89
573,00	1586,40
573,09	1498,27
573,18	1581,88
573,27	1532,16
573,35	1471,15
573,44	1536,68
573,53	1518,60
573,61	1568,32
573,70	1543,46
573,79	1572,84
573,87	1547,98
573,96	1586,40
574,05	1561,54
574,14	1543,46
574,22	1559,28
574,31	1516,34
574,40	1529,90
574,48	1559,28
574,57	1514,08
574,66	1523,12
574,74	1525,38
574,83	1505,05
574,92	1579,62
575,00	1584,14
575,09	1502,79
575,18	1536,68
575,26	1568,32
575,35	1511,82
575,43	1509,56
575,52	1568,32
575,61	1575,10
575,69	1520,86
575,78	1496,01
575,87	1586,40
575,95	1572,84
576,04	1505,05
576,13	1523,12
576,21	1561,54
576,30	1545,72
576,38	1480,19
576,47	1534,42
576,56	1577,36
576,64	1543,46
576,73	1597,70
576,82	1618,04
576,90	1543,46
576,99	1538,94
577,07	1550,24
577,16	1538,94
577,25	1584,14
577,33	1529,90
577,42	1486,97
577,50	1545,72
577,59	1538,94
577,68	1593,18
577,76	1584,14
577,85	1547,98
577,93	1586,40
578,02	1559,28
578,10	1529,90
578,19	1590,92
578,28	1527,64
578,36	1552,50
578,45	1575,10
578,53	1511,82
578,62	1536,68
578,70	1520,86
578,79	1502,79
578,88	1552,50
578,96	1595,44
579,05	1523,12
579,13	1595,44
579,22	1570,58
579,30	1509,56
579,39	1586,40
579,47	1518,60
579,56	1602,22
579,64	1523,12
579,73	1489,23
579,82	1525,38
579,90	1547,98
579,99	1561,54
580,07	1554,76
580,16	1538,94
580,24	1547,98
580,33	1500,53
580,41	1597,70
580,50	1473,41
580,58	1509,56
580,67	1523,12
580,75	1473,41
580,84	1514,08
580,92	1559,28
581,01	1568,32
581,09	1552,50
581,18	1471,15
581,26	1480,19
581,35	1543,46
581,43	1561,54
581,52	1493,75
581,60	1520,86
581,69	1538,94
581,77	1534,42
581,86	1489,23
581,94	1464,37
582,02	1520,86
582,11	1590,92
582,19	1550,24
582,28	1579,62
582,36	1480,19
582,45	1477,93
582,53	1518,60
582,62	1518,60
582,70	1486,97
582,79	1570,58
582,87	1563,80
582,96	1520,86
583,04	1566,06
583,12	1441,77
583,21	1502,79
583,29	1563,80
583,38	1588,66
583,46	1547,98
583,55	1518,60
583,63	1581,88
583,71	1554,76
583,80	1475,67
583,88	1541,20
583,97	1559,28
584,05	1511,82
584,13	1534,42
584,22	1536,68
584,30	1505,05
584,39	1459,85
584,47	1520,86
584,55	1586,40
584,64	1536,68
584,72	1525,38
584,81	1550,24
584,89	1566,06
584,97	1514,08
585,06	1609,00
585,14	1575,10
585,23	1498,27
585,31	1538,94
585,39	1450,81
585,48	1473,41
585,56	1509,56
585,64	1516,34
585,73	1541,20
585,81	1615,78
585,90	1554,76
585,98	1527,64
586,06	1498,27
586,15	1532,16
586,23	1536,68
586,31	1554,76
586,40	1563,80
586,48	1557,02
586,56	1575,10
586,65	1579,62
586,73	1520,86
586,81	1475,67
586,90	1468,89
586,98	1579,62
587,06	1550,24
587,15	1547,98
587,23	1538,94
587,31	1559,28
587,40	1527,64
587,48	1525,38
587,56	1563,80
587,65	1493,75
587,73	1473,41
587,81	1525,38
587,90	1541,20
587,98	1557,02
588,06	1496,01
588,14	1566,06
588,23	1529,90
588,31	1525,38
588,39	1545,72
588,48	1554,76
588,56	1502,79
588,64	1509,56
588,72	1529,90
588,81	1516,34
588,89	1468,89
588,97	1496,01
589,06	1505,05
589,14	1486,97
589,22	1611,26
589,30	1520,86
589,39	1475,67
589,47	1529,90
589,55	1566,06
589,63	1491,49
589,72	1532,16
589,80	1520,86
589,88	1579,62
589,96	1532,16
590,05	1514,08
590,13	1500,53
590,21	1599,96
590,29	1489,23
590,38	1459,85
590,46	1527,64
590,54	1455,33
590,62	1534,42
590,71	1525,38
590,79	1557,02
590,87	1577,36
590,95	1477,93
591,03	1547,98
591,12	1566,06
591,20	1534,42
591,28	1507,30
591,36	1473,41
591,44	1545,72
591,53	1538,94
591,61	1502,79
591,69	1557,02
591,77	1525,38
591,85	1466,63
591,94	1541,20
592,02	1493,75
592,10	1489,23
592,18	1523,12
592,26	1561,54
592,34	1536,68
592,43	1446,29
592,51	1507,30
592,59	1538,94
592,67	1518,60
592,75	1561,54
592,84	1520,86
592,92	1618,04
593,00	1534,42
593,08	1505,05
593,16	1514,08
593,24	1453,07
593,32	1534,42
593,41	1493,75
593,49	1486,97
593,57	1493,75
593,65	1588,66
593,73	1532,16
593,81	1588,66
593,89	1559,28
593,98	1525,38
594,06	1523,12
594,14	1446,29
594,22	1502,79
594,30	1595,44
594,38	1559,28
594,46	1568,32
594,54	1604,48
594,62	1514,08
594,71	1509,56
594,79	1527,64
594,87	1561,54
594,95	1520,86
595,03	1563,80
595,11	1550,24
595,19	1498,27
595,27	1496,01
595,35	1498,27
595,43	1500,53
595,52	1568,32
595,60	1518,60
595,68	1541,20
595,76	1550,24
595,84	1561,54
595,92	1523,12
596,00	1554,76
596,08	1570,58
596,16	1559,28
596,24	1520,86
596,32	1557,02
596,40	1523,12
596,48	1593,18
596,56	1493,75
596,64	1457,59
596,73	1568,32
596,81	1552,50
596,89	1518,60
596,97	1491,49
597,05	1505,05
597,13	1480,19
597,21	1529,90
597,29	1507,30
597,37	1502,79
597,45	1529,90
597,53	1575,10
597,61	1534,42
597,69	1541,20
597,77	1459,85
597,85	1572,84
597,93	1500,53
598,01	1557,02
598,09	1511,82
598,17	1507,30
598,25	1511,82
598,33	1518,60
598,41	1523,12
598,49	1516,34
598,57	1462,11
598,65	1523,12
598,73	1604,48
598,81	1570,58
598,89	1572,84
598,97	1459,85
599,05	1446,29
599,13	1482,45
599,21	1446,29
599,29	1486,97
599,37	1486,97
599,45	1561,54
599,53	1480,19
599,61	1486,97
599,69	1475,67
599,77	1493,75
599,85	1516,34
599,93	1466,63
600,00	1520,86
600,08	1532,16
600,16	1523,12
600,24	1493,75
600,32	1550,24
600,40	1502,79
600,48	1509,56
600,56	1475,67
600,64	1552,50
600,72	1559,28
600,80	1482,45
600,88	1500,53
600,96	1525,38
601,04	1484,71
601,12	1457,59
601,19	1489,23
601,27	1523,12
601,35	1505,05
601,43	1511,82
601,51	1475,67
601,59	1518,60
601,67	1480,19
601,75	1477,93
601,83	1468,89
601,91	1511,82
601,98	1529,90
602,06	1505,05
602,14	1462,11
602,22	1550,24
602,30	1563,80
602,38	1559,28
602,46	1464,37
602,54	1507,30
602,61	1527,64
602,69	1482,45
602,77	1430,47
602,85	1493,75
602,93	1581,88
603,01	1520,86
603,09	1500,53
603,17	1471,15
603,24	1477,93
603,32	1507,30
603,40	1550,24
603,48	1475,67
603,56	1473,41
603,64	1498,27
603,71	1543,46
603,79	1525,38
603,87	1473,41
603,95	1541,20
604,03	1489,23
604,11	1527,64
604,18	1568,32
604,26	1525,38
604,34	1532,16
604,42	1486,97
604,50	1514,08
604,57	1493,75
604,65	1527,64
604,73	1484,71
604,81	1462,11
604,89	1437,25
604,96	1511,82
605,04	1509,56
605,12	1453,07
605,20	1559,28
605,28	1491,49
605,35	1500,53
605,43	1453,07
605,51	1450,81
605,59	1523,12
605,67	1496,01
605,74	1457,59
605,82	1486,97
605,90	1489,23
605,98	1493,75
606,05	1570,58
606,13	1505,05
606,21	1561,54
606,29	1509,56
606,36	1525,38
606,44	1468,89
606,52	1536,68
606,60	1541,20
606,67	1464,37
606,75	1489,23
606,83	1444,03
606,91	1511,82
606,98	1468,89
607,06	1577,36
607,14	1557,02
607,22	1514,08
607,29	1493,75
607,37	1609,00
607,45	1484,71
607,52	1482,45
607,60	1473,41
607,68	1493,75
607,76	1523,12
607,83	1462,11
607,91	1505,05
607,99	1480,19
608,06	1516,34
608,14	1523,12
608,22	1529,90
608,30	1489,23
608,37	1489,23
608,45	1511,82
608,53	1518,60
608,60	1475,67
608,68	1428,21
608,76	1405,61
608,83	1459,85
608,91	1477,93
608,99	1534,42
609,06	1480,19
609,14	1491,49
609,22	1493,75
609,29	1480,19
609,37	1475,67
609,45	1500,53
609,52	1523,12
609,60	1543,46
609,68	1505,05
609,75	1489,23
609,83	1493,75
609,91	1547,98
609,98	1527,64
610,06	1432,73
610,13	1484,71
610,21	1545,72
610,29	1529,90
610,36	1511,82
610,44	1464,37
610,52	1471,15
610,59	1471,15
610,67	1471,15
610,74	1500,53
610,82	1464,37
610,90	1471,15
610,97	1482,45
611,05	1518,60
611,13	1477,93
611,20	1509,56
611,28	1434,99
611,35	1491,49
611,43	1511,82
611,51	1498,27
611,58	1502,79
611,66	1437,25
611,73	1473,41
611,81	1507,30
611,88	1543,46
611,96	1489,23
612,04	1425,95
612,11	1466,63
612,19	1536,68
612,26	1432,73
612,34	1511,82
612,41	1498,27
612,49	1414,65
612,57	1464,37
612,64	1471,15
612,72	1550,24
612,79	1520,86
612,87	1473,41
612,94	1566,06
613,02	1514,08
613,09	1448,55
613,17	1416,91
613,24	1482,45
613,32	1520,86
613,40	1545,72
613,47	1509,56
613,55	1491,49
613,62	1505,05
613,70	1486,97
613,77	1466,63
613,85	1498,27
613,92	1428,21
614,00	1455,33
614,07	1489,23
614,15	1466,63
614,22	1496,01
614,30	1575,10
614,37	1444,03
614,45	1489,23
614,52	1450,81
614,60	1466,63
614,67	1448,55
614,75	1423,69
614,82	1473,41
614,90	1432,73
614,97	1473,41
615,05	1484,71
615,12	1439,51
615,20	1480,19
615,27	1471,15
615,34	1500,53
615,42	1448,55
615,49	1437,25
615,57	1491,49
615,64	1466,63
615,72	1468,89
615,79	1473,41
615,87	1500,53
615,94	1520,86
616,02	1432,73
616,09	1468,89
616,16	1410,13
616,24	1496,01
616,31	1416,91
616,39	1448,55
616,46	1498,27
616,54	1455,33
616,61	1430,47
616,68	1471,15
616,76	1466,63
616,83	1466,63
616,91	1450,81
616,98	1448,55
617,06	1489,23
617,13	1500,53
617,20	1482,45
617,28	1500,53
617,35	1482,45
617,43	1455,33
617,50	1453,07
617,57	1482,45
>>>>>End Processed Spectral Data<<<<<
