SpectraSuite Datei
++++++++++++++++++++++++++++++++++++
Datum: Sun Jan 04 06:24:26 CET 2004
Benutzer: H. Stützler
Dark-Spektrum vorhanden: Nein
Referenz-Spektrum vorhanden: Nein
Zahl der probierten Teilspektren: 1
Spektrometer: USB2+H04734
Integrationszeit (usec): 1000000 (USB2+H04734)
Spektren Durchschnitt berechnet: 10 (USB2+H04734)
Boxcar Glättung: 0 (USB2+H04734)
Dunkelstromkorrektur: Nein (USB2+H04734)
Puls/Lampe aktiviert: Nein (USB2+H04734)
Correct for Detector Non-linearity: Nein (USB2+H04734)
Streulichtkorrektur: Nein (USB2+H04734)
Anzahl Pixel in verarbeitetem Spektrum: 2048
>>>>>Begin Processed Spectral Data<<<<<
418,45	1224,37
418,57	1224,37
418,69	1224,37
418,80	1148,44
418,92	1130,37
419,04	1348,44
419,16	1190,25
419,28	1199,52
419,40	1170,82
419,52	1200,42
419,64	1165,39
419,75	1198,39
419,87	1212,40
419,99	1195,00
420,11	1217,60
420,23	1216,47
420,35	1262,57
420,47	1255,56
420,58	1244,04
420,70	1287,88
420,82	1252,62
420,94	1302,34
421,06	1373,30
421,18	1350,92
421,29	1324,71
421,41	1314,32
421,53	1376,46
421,65	1409,45
421,77	1419,62
421,89	1362,90
422,00	1476,35
422,12	1380,53
422,24	1361,32
422,36	1464,82
422,48	1462,33
422,59	1403,80
422,71	1445,61
422,83	1371,26
422,95	1391,38
423,07	1430,70
423,18	1476,80
423,30	1454,20
423,42	1393,64
423,54	1429,11
423,66	1387,99
423,77	1439,28
423,89	1407,42
424,01	1399,06
424,13	1386,40
424,25	1388,66
424,36	1433,63
424,48	1418,04
424,60	1406,06
424,72	1461,20
424,84	1396,80
424,95	1472,05
425,07	1397,93
425,19	1395,44
425,31	1389,34
425,42	1375,56
425,54	1433,86
425,66	1430,92
425,78	1373,98
425,89	1407,87
426,01	1392,28
426,13	1390,70
426,25	1432,50
426,36	1390,70
426,48	1409,91
426,60	1426,86
426,72	1397,03
426,83	1449,91
426,95	1427,08
427,07	1404,48
427,19	1509,34
427,30	1390,02
427,42	1376,01
427,54	1384,60
427,66	1383,24
427,77	1374,65
427,89	1408,78
428,01	1420,08
428,12	1426,86
428,24	1370,81
428,36	1371,49
428,48	1372,17
428,59	1367,20
428,71	1404,26
428,83	1378,95
428,94	1384,37
429,06	1400,42
429,18	1413,52
429,30	1407,65
429,41	1394,31
429,53	1439,51
429,65	1435,44
429,76	1414,65
429,88	1369,46
430,00	1420,53
430,11	1445,39
430,23	1376,91
430,35	1464,37
430,47	1394,09
430,58	1359,74
430,70	1429,34
430,82	1416,01
430,93	1579,85
431,05	1410,58
431,17	1407,19
431,28	1437,48
431,40	1380,98
431,52	1493,75
431,63	1388,21
431,75	1368,78
431,87	1405,61
431,98	1454,65
432,10	1409,91
432,22	1397,03
432,33	1454,65
432,45	1419,85
432,56	1410,81
432,68	1435,44
432,80	1395,67
432,91	1434,31
433,03	1393,86
433,15	1474,99
433,26	1421,88
433,38	1395,67
433,50	1351,83
433,61	1453,52
433,73	1485,16
433,84	1401,09
433,96	1381,21
434,08	1406,97
434,19	1391,15
434,31	1374,43
434,43	1405,84
434,54	1423,01
434,66	1367,65
434,77	1356,12
434,89	1435,67
435,01	1410,58
435,12	1364,03
435,24	1385,95
435,35	1383,69
435,47	1496,01
435,59	1406,06
435,70	1378,04
435,82	1398,38
435,93	1446,97
436,05	1452,62
436,17	1411,94
436,28	1419,85
436,40	1437,25
436,51	1382,34
436,63	1404,93
436,74	1467,31
436,86	1476,35
436,98	1640,63
437,09	1396,12
437,21	1420,75
437,32	1373,75
437,44	1445,61
437,55	1373,98
437,67	1768,54
437,79	1542,78
437,90	1423,01
438,02	1401,55
438,13	2214,86
438,25	1482,90
438,36	1466,63
438,48	1447,65
438,59	1441,54
438,71	1392,05
438,83	1386,18
438,94	1357,93
439,06	1454,20
439,17	1452,84
439,29	1387,53
439,40	1418,49
439,52	1403,80
439,63	1432,50
439,75	1376,24
439,86	1379,85
439,98	1401,32
440,09	1448,10
440,21	1400,87
440,32	1376,24
440,44	1372,85
440,55	1399,29
440,67	1392,51
440,78	1465,50
440,90	1372,85
441,01	1402,45
441,13	1367,20
441,24	1422,79
441,36	1464,59
441,47	1385,95
441,59	1432,73
441,70	1360,87
441,82	1464,82
441,93	1430,92
442,05	1357,70
442,16	1371,26
442,28	1380,30
442,39	1416,69
442,51	1431,37
442,62	1393,86
442,74	1433,18
442,85	1415,10
442,97	1485,38
443,08	1432,28
443,20	1431,37
443,31	1428,66
443,43	1386,18
443,54	1442,67
443,66	1366,97
443,77	1398,83
443,88	1380,08
444,00	1413,75
444,11	1459,85
444,23	1482,45
444,34	1369,00
444,46	1383,24
444,57	1483,58
444,69	1469,79
444,80	1434,54
444,91	1543,91
445,03	1388,21
445,14	1431,60
445,26	1364,03
445,37	1397,70
445,49	1412,84
445,60	1470,92
445,71	1490,58
445,83	1407,42
445,94	1374,65
446,06	1449,68
446,17	1386,86
446,29	1353,64
446,40	1396,80
446,51	1456,01
446,63	1407,42
446,74	1394,99
446,86	1394,09
446,97	1466,18
447,08	1377,36
447,20	1412,17
447,31	1387,53
447,43	1415,56
447,54	1423,01
447,65	1436,57
447,77	1387,76
447,88	1420,53
448,00	1409,00
448,11	1358,83
448,22	1388,21
448,34	1417,59
448,45	1362,68
448,56	1400,64
448,68	1409,91
448,79	1465,72
448,90	1411,04
449,02	1404,93
449,13	1401,09
449,25	1408,10
449,36	1381,43
449,47	1414,65
449,59	1482,67
449,70	1420,30
449,81	1390,47
449,93	1408,78
450,04	1381,43
450,15	1409,23
450,27	1421,43
450,38	1435,44
450,49	1407,19
450,61	1492,62
450,72	1407,19
450,83	1449,68
450,95	1404,71
451,06	1437,93
451,17	1497,59
451,29	1462,11
451,40	1389,12
451,51	1380,08
451,63	1387,31
451,74	1439,74
451,85	1396,35
451,97	1446,97
452,08	1401,77
452,19	1392,96
452,31	1478,38
452,42	1406,06
452,53	1473,63
452,65	1459,40
452,76	1384,82
452,87	1392,73
452,98	1400,64
453,10	1410,58
453,21	1369,46
453,32	1403,35
453,44	1388,66
453,55	1355,44
453,66	1545,72
453,77	1434,76
453,89	1431,83
454,00	1495,78
454,11	1438,61
454,23	1408,10
454,34	1403,35
454,45	1368,10
454,56	1446,06
454,68	1516,80
454,79	1406,97
454,90	1397,70
455,01	1373,98
455,13	1359,29
455,24	1491,49
455,35	1380,08
455,46	1350,25
455,58	1370,36
455,69	1479,96
455,80	1448,78
455,91	1387,53
456,03	1411,94
456,14	1458,94
456,25	1380,53
456,36	1352,28
456,48	1395,22
456,59	1475,67
456,70	1379,85
456,81	1481,32
456,92	1492,39
457,04	1460,07
457,15	1547,53
457,26	1387,99
457,37	1410,13
457,49	1374,20
457,60	1376,69
457,71	1427,31
457,82	1413,07
457,93	1402,22
458,05	1451,04
458,16	1381,88
458,27	1392,51
458,38	1415,10
458,49	1423,92
458,61	1416,91
458,72	1418,95
458,83	1406,74
458,94	1425,73
459,05	1431,83
459,17	1620,52
459,28	1395,67
459,39	1403,35
459,50	1383,01
459,61	1468,21
459,72	1388,21
459,84	1386,40
459,95	1421,66
460,06	1642,67
460,17	1388,44
460,28	1418,72
460,39	1420,53
460,51	1417,14
460,62	1416,23
460,73	1422,11
460,84	1353,41
460,95	1472,73
461,06	1509,79
461,18	1461,20
461,29	1475,89
461,40	1406,52
461,51	1433,63
461,62	1565,16
461,73	1402,22
461,84	1450,36
461,96	1440,87
462,07	1460,98
462,18	1409,91
462,29	1401,77
462,40	1440,41
462,51	1400,64
462,62	1469,57
462,73	1491,94
462,85	1442,90
462,96	1443,58
463,07	1461,43
463,18	1530,13
463,29	1450,13
463,40	1395,90
463,51	1373,30
463,62	1383,92
463,73	1455,55
463,85	1387,08
463,96	1419,85
464,07	1414,43
464,18	1401,32
464,29	1367,87
464,40	1503,69
464,51	1417,59
464,62	1416,01
464,73	1380,98
464,84	1444,71
464,95	1389,34
465,06	1404,93
465,18	1358,38
465,29	1432,50
465,40	1386,18
465,51	1421,43
465,62	1457,81
465,73	1403,58
465,84	1433,41
465,95	1432,05
466,06	1399,29
466,17	1423,69
466,28	1402,45
466,39	1454,20
466,50	1380,98
466,61	1356,80
466,72	1425,95
466,83	1376,01
466,95	1391,15
467,06	1371,94
467,17	1405,39
467,28	1378,27
467,39	1409,68
467,50	1432,50
467,61	1369,23
467,72	1385,50
467,83	1382,56
467,94	1432,96
468,05	1376,91
468,16	1419,17
468,27	1434,31
468,38	1379,40
468,49	1464,82
468,60	1380,53
468,71	1457,59
468,82	1434,99
468,93	1457,59
469,04	1504,82
469,15	1392,05
469,26	1396,12
469,37	1409,91
469,48	1470,47
469,59	1428,21
469,70	1381,43
469,81	1379,40
469,92	1351,60
470,03	1427,53
470,14	1376,91
470,25	1466,63
470,36	1429,34
470,47	1380,75
470,58	1381,88
470,69	1435,44
470,80	1467,98
470,91	1386,40
471,02	1388,44
471,13	1421,88
471,24	1416,91
471,35	1387,08
471,46	1486,06
471,56	1473,41
471,67	1475,67
471,78	1463,92
471,89	1366,74
472,00	1397,48
472,11	1434,76
472,22	1453,52
472,33	1409,91
472,44	1429,11
472,55	1406,06
472,66	1428,21
472,77	1406,29
472,88	1528,10
472,99	1467,31
473,10	1389,57
473,21	1393,86
473,32	1411,71
473,42	1371,72
473,53	1391,15
473,64	1405,39
473,75	1436,35
473,86	1428,21
473,97	1434,54
474,08	1456,91
474,19	1465,72
474,30	1540,98
474,41	1425,05
474,52	1385,27
474,62	1397,25
474,73	1410,13
474,84	1510,92
474,95	1436,35
475,06	1442,90
475,17	1397,70
475,28	1364,26
475,39	1411,26
475,50	1365,16
475,60	1382,56
475,71	1380,75
475,82	1460,07
475,93	1396,35
476,04	1486,06
476,15	1401,77
476,26	1426,86
476,37	1382,34
476,47	1399,74
476,58	1396,57
476,69	1380,08
476,80	1390,70
476,91	1405,39
477,02	1403,13
477,13	1399,06
477,23	1385,27
477,34	1413,07
477,45	1411,94
477,56	1404,26
477,67	1411,71
477,78	1393,64
477,89	1404,93
477,99	1408,78
478,10	1441,32
478,21	1438,83
478,32	1428,66
478,43	1409,45
478,54	1509,34
478,64	1430,47
478,75	1416,01
478,86	1383,92
478,97	1409,00
479,08	1409,91
479,18	1371,04
479,29	1401,55
479,40	1378,95
479,51	1386,63
479,62	1380,30
479,72	1385,50
479,83	1365,84
479,94	1443,35
480,05	1449,91
480,16	1385,05
480,26	1418,49
480,37	1393,86
480,48	1453,97
480,59	1427,31
480,70	1415,56
480,80	1393,18
480,91	1394,09
481,02	1377,14
481,13	1429,79
481,24	1418,95
481,34	1365,16
481,45	1533,74
481,56	1410,81
481,67	1411,26
481,77	1420,08
481,88	1402,90
481,99	1432,96
482,10	1432,05
482,20	1732,16
482,31	1416,23
482,42	1421,88
482,53	1378,04
482,63	1493,75
482,74	1444,93
482,85	1375,33
482,96	1380,53
483,06	1385,27
483,17	1432,73
483,28	1369,68
483,39	1392,05
483,49	1440,64
483,60	1536,91
483,71	1385,73
483,81	1465,72
483,92	1422,79
484,03	1428,21
484,14	1383,24
484,24	1362,68
484,35	1413,97
484,46	1405,16
484,57	1405,39
484,67	1428,66
484,78	1366,29
484,89	1529,23
484,99	1397,70
485,10	1410,81
485,21	1445,16
485,31	1425,95
485,42	1417,82
485,53	1393,18
485,63	1383,47
485,74	1512,95
485,85	1567,64
485,96	1495,10
486,06	1396,57
486,17	1410,13
486,28	1423,47
486,38	1379,17
486,49	1456,01
486,60	1389,79
486,70	1384,60
486,81	1391,60
486,92	1392,05
487,02	1389,12
487,13	1367,20
487,24	1399,74
487,34	1396,80
487,45	1492,16
487,56	1421,88
487,66	1383,24
487,77	1436,35
487,87	1386,86
487,98	1372,39
488,09	1402,22
488,19	1374,43
488,30	1547,53
488,41	1386,86
488,51	1385,27
488,62	1388,44
488,73	1406,74
488,83	1422,56
488,94	1444,26
489,04	1479,28
489,15	1360,64
489,26	1374,88
489,36	1431,83
489,47	1402,67
489,58	1389,34
489,68	1437,25
489,79	1387,76
489,89	1427,08
490,00	1406,52
490,11	1449,23
490,21	1440,41
490,32	1374,20
490,42	1400,64
490,53	1434,54
490,64	1360,64
490,74	1382,56
490,85	1358,61
490,95	1433,86
491,06	1428,21
491,16	1394,09
491,27	1416,23
491,38	1382,11
491,48	1520,86
491,59	1512,95
491,69	1448,10
491,80	1384,82
491,90	1487,42
492,01	1372,17
492,12	1419,40
492,22	1397,48
492,33	1470,24
492,43	1424,82
492,54	1388,66
492,64	1384,14
492,75	1426,40
492,86	1440,41
492,96	1381,66
493,07	1385,73
493,17	1421,43
493,28	1430,47
493,38	1431,37
493,49	1403,80
493,59	1437,70
493,70	1416,69
493,80	1385,73
493,91	1378,95
494,01	1376,46
494,12	1408,78
494,22	1461,88
494,33	1483,58
494,43	1487,64
494,54	1498,49
494,64	1457,14
494,75	1390,47
494,86	1464,59
494,96	1382,11
495,07	1413,07
495,17	1470,24
495,28	1420,53
495,38	1396,35
495,49	1411,49
495,59	1447,42
495,69	1406,97
495,80	1465,27
495,90	1402,00
496,01	1402,00
496,11	1430,02
496,22	1412,17
496,32	1375,78
496,43	1425,05
496,53	1402,22
496,64	1430,47
496,74	1439,28
496,85	1442,90
496,95	1431,15
497,06	1393,41
497,16	1423,69
497,27	1419,17
497,37	1474,99
497,48	1368,10
497,58	1409,68
497,68	1410,36
497,79	1456,68
497,89	1407,42
498,00	1430,47
498,10	1395,90
498,21	1464,59
498,31	1411,71
498,42	1410,58
498,52	1461,20
498,62	1436,57
498,73	1405,16
498,83	1431,15
498,94	1397,25
499,04	1474,09
499,15	1412,84
499,25	1385,05
499,35	1444,71
499,46	1513,41
499,56	1543,46
499,67	1471,37
499,77	1382,79
499,87	1416,23
499,98	1390,70
500,08	1383,69
500,19	1404,26
500,29	1416,69
500,39	1459,17
500,50	1499,85
500,60	1439,28
500,71	1436,35
500,81	1435,67
500,91	1395,67
501,02	1418,72
501,12	1458,94
501,22	1402,45
501,33	1445,84
501,43	1472,28
501,54	1376,46
501,64	1409,45
501,74	1400,64
501,85	1488,10
501,95	1392,05
502,05	1410,81
502,16	1429,11
502,26	1500,30
502,37	1441,09
502,47	1445,39
502,57	1429,79
502,68	1418,04
502,78	1411,94
502,88	1464,82
502,99	1415,56
503,09	1471,15
503,19	1391,38
503,30	1396,12
503,40	1394,31
503,50	1409,91
503,61	1436,35
503,71	1422,34
503,81	1427,31
503,92	1449,68
504,02	1464,37
504,12	1612,84
504,23	1488,32
504,33	1411,71
504,43	1416,46
504,54	1472,05
504,64	1466,63
504,74	1623,01
504,84	1425,27
504,95	1418,95
505,05	1385,95
505,15	1508,43
505,26	1413,97
505,36	1425,95
505,46	1409,91
505,56	1472,73
505,67	1466,85
505,77	1441,32
505,87	1403,13
505,98	1397,25
506,08	1424,37
506,18	1457,14
506,28	1452,62
506,39	1445,61
506,49	1434,54
506,59	1392,28
506,70	1430,02
506,80	1462,56
506,90	1534,65
507,00	1403,13
507,11	1447,65
507,21	1490,13
507,31	1472,50
507,41	1448,32
507,52	1432,73
507,62	1443,13
507,72	1526,29
507,82	1514,08
507,93	1458,49
508,03	1516,57
508,13	1472,50
508,23	1456,23
508,34	1469,34
508,44	1417,82
508,54	1425,05
508,64	1452,62
508,74	1423,01
508,85	1443,58
508,95	1453,97
509,05	1425,95
509,15	1468,89
509,26	1477,25
509,36	1434,99
509,46	1503,46
509,56	1453,97
509,66	1466,40
509,77	1472,96
509,87	1473,86
509,97	1472,28
510,07	1476,12
510,17	1449,68
510,28	1578,72
510,38	1509,34
510,48	1469,79
510,58	1476,35
510,68	1481,54
510,78	1480,64
510,89	1463,24
510,99	1432,28
511,09	1504,14
511,19	1492,62
511,29	1442,90
511,39	1522,67
511,50	1547,98
511,60	1456,01
511,70	1522,22
511,80	1523,80
511,90	1527,42
512,00	1479,06
512,11	1442,00
512,21	1498,49
512,31	1449,45
512,41	1547,08
512,51	1503,24
512,61	1631,14
512,71	1479,51
512,82	1493,75
512,92	1460,07
513,02	1539,17
513,12	1491,71
513,22	1496,01
513,32	1533,29
513,42	1512,28
513,53	1583,91
513,63	1529,45
513,73	1552,28
513,83	1485,16
513,93	1527,64
514,03	1570,58
514,13	1594,99
514,23	1513,63
514,33	1517,93
514,44	1515,21
514,54	1512,73
514,64	1604,03
514,74	1537,59
514,84	1543,24
514,94	1563,57
515,04	1568,32
515,14	1561,54
515,24	1550,02
515,34	1559,28
515,44	1495,33
515,55	1502,56
515,65	1570,58
515,75	1531,94
515,85	1543,69
515,95	1607,19
516,05	1637,02
516,15	1590,69
516,25	1536,68
516,35	1545,95
516,45	1537,13
516,55	1564,48
516,65	1576,91
516,75	1705,49
516,85	1641,76
516,95	1653,29
517,05	1661,65
517,16	1596,79
517,26	1747,07
517,36	1621,65
517,46	1654,87
517,56	1694,42
517,66	1737,81
517,76	1841,53
517,86	2024,81
517,96	2372,59
518,06	2647,61
518,16	3017,55
518,26	3418,44
518,36	3649,85
518,46	3770,30
518,56	3866,34
518,66	3779,11
518,76	3502,05
518,86	3288,05
518,96	2904,56
519,06	2700,04
519,16	2500,73
519,26	2345,48
519,36	2305,48
519,46	2239,49
519,56	2276,55
519,66	2309,54
519,76	2118,14
519,86	2073,39
519,96	2041,98
520,06	1970,12
520,16	2006,73
520,26	1891,70
520,36	1819,39
520,46	1771,70
520,56	1728,54
520,66	1772,61
520,76	1742,33
520,86	1728,54
520,96	1791,82
521,06	1768,99
521,16	1720,86
521,26	1735,10
521,35	1768,32
521,45	1714,31
521,55	1709,56
521,65	1763,34
521,75	1698,03
521,85	1691,48
521,95	1750,91
522,05	1725,83
522,15	1727,41
522,25	2119,27
522,35	1808,54
522,45	1750,24
522,55	1801,76
522,65	1797,92
522,75	1760,41
522,85	1746,62
522,94	1752,04
523,04	1775,09
523,14	1742,10
523,24	1682,44
523,34	1694,87
523,44	1679,50
523,54	1646,96
523,64	1611,26
523,74	1702,10
523,84	1652,16
523,94	1594,53
524,03	1534,65
524,13	1552,95
524,23	1540,52
524,33	1475,89
524,43	1464,14
524,53	1481,09
524,63	1438,15
524,73	1451,04
524,83	1414,43
524,92	1430,24
525,02	1385,95
525,12	1461,66
525,22	1443,80
525,32	1383,92
525,42	1459,85
525,52	1413,75
525,61	1427,99
525,71	1380,53
525,81	1423,24
525,91	1377,59
526,01	1417,59
526,11	1457,81
526,21	1450,58
526,30	1427,31
526,40	1390,02
526,50	1444,26
526,60	1423,92
526,70	1438,38
526,80	1428,44
526,89	1400,42
526,99	1390,70
527,09	1432,28
527,19	1433,86
527,29	1460,53
527,39	1421,88
527,48	1423,01
527,58	1421,21
527,68	1377,59
527,78	1465,95
527,88	1552,73
527,97	1409,91
528,07	1383,24
528,17	1464,14
528,27	1460,98
528,37	1413,75
528,46	1407,65
528,56	1504,14
528,66	1442,22
528,76	1389,79
528,86	1476,12
528,95	1392,96
529,05	1412,84
529,15	1434,76
529,25	1472,05
529,35	1468,44
529,44	1453,97
529,54	1470,92
529,64	1437,93
529,74	1412,17
529,83	1390,92
529,93	1409,00
530,03	1444,71
530,13	1425,73
530,22	1477,25
530,32	1465,27
530,42	1448,55
530,52	1379,40
530,61	1476,80
530,71	1406,52
530,81	1499,17
530,91	1512,95
531,00	1654,19
531,10	1810,57
531,20	2059,83
531,30	2227,51
531,39	2317,23
531,49	2385,47
531,59	2719,02
531,69	2592,93
531,78	2438,81
531,88	2368,98
531,98	2198,81
532,07	1971,47
532,17	1843,79
532,27	1727,86
532,37	1563,12
532,46	1499,17
532,56	1468,44
532,66	1412,62
532,75	1418,04
532,85	1424,60
532,95	1418,04
533,04	1412,17
533,14	1449,91
533,24	1450,58
533,34	1394,77
533,43	1465,50
533,53	1363,81
533,63	1446,74
533,72	1406,97
533,82	1392,73
533,92	1397,25
534,01	1558,83
534,11	1588,88
534,21	1435,67
534,30	1413,30
534,40	1386,40
534,50	1383,69
534,59	1418,95
534,69	1374,20
534,79	1418,49
534,88	1476,35
534,98	1459,62
535,08	1351,38
535,17	1448,10
535,27	1423,01
535,36	1392,73
535,46	1416,91
535,56	1385,50
535,65	1455,33
535,75	1454,20
535,85	1427,08
535,94	1417,59
536,04	1426,40
536,14	1453,30
536,23	1496,01
536,33	1402,00
536,42	1427,76
536,52	1421,88
536,62	1373,07
536,71	1458,72
536,81	1438,38
536,90	1430,70
537,00	1440,19
537,10	1429,11
537,19	1458,94
537,29	1470,24
537,38	1520,41
537,48	1491,03
537,58	1520,86
537,67	1486,06
537,77	1552,05
537,86	1577,59
537,96	1708,20
538,06	1706,17
538,15	1748,65
538,25	1990,68
538,34	2133,96
538,44	2143,45
538,53	2092,15
538,63	2131,92
538,73	2126,27
538,82	2077,01
538,92	2054,18
539,01	2168,30
539,11	2025,48
539,20	2183,22
539,30	2091,47
539,39	2128,08
539,49	2172,60
539,59	2248,30
539,68	2399,26
539,78	2452,59
539,87	2417,56
539,97	2443,55
540,06	2517,00
540,16	2495,08
540,25	2596,99
540,35	2652,13
540,44	2648,97
540,54	2752,92
540,63	2701,40
540,73	2725,58
540,82	2797,89
540,92	2791,11
541,01	2867,72
541,11	2879,70
541,20	2835,63
541,30	2852,13
541,39	2896,20
541,49	2886,93
541,58	2964,67
541,68	2956,76
541,77	2932,35
541,87	2895,74
541,96	2928,06
542,06	3030,88
542,15	3062,29
542,25	3273,59
542,34	3155,40
542,44	3140,03
542,53	3198,56
542,63	3226,58
542,72	3208,96
542,82	3282,85
542,91	3320,14
543,01	3360,14
543,10	3500,02
543,20	3516,29
543,29	3677,42
543,38	3816,40
543,48	4084,19
543,57	4405,31
543,67	4822,47
543,76	5268,79
543,86	5804,59
543,95	6311,47
544,05	6761,86
544,14	7009,76
544,23	6975,86
544,33	6916,88
544,42	6785,13
544,52	6709,43
544,61	7159,13
544,71	8336,96
544,80	10466,84
544,89	13427,90
544,99	16688,15
545,08	19811,91
545,18	22159,87
545,27	23671,24
545,36	23697,46
545,46	22355,12
545,55	19841,96
545,65	16543,97
545,74	13317,62
545,84	10223,69
545,93	7716,63
546,02	6026,06
546,12	4947,67
546,21	4245,76
546,30	3920,57
546,40	3706,57
546,49	3531,88
546,59	3470,19
546,68	3423,64
546,77	3427,48
546,87	3376,18
546,96	3405,11
547,05	3327,82
547,15	3263,19
547,24	3204,44
547,34	3240,37
547,43	3272,46
547,52	3330,31
547,62	3299,80
547,71	3289,18
547,80	3260,03
547,90	3209,18
547,99	3322,17
548,08	3222,74
548,18	3152,69
548,27	3154,27
548,36	3107,71
548,46	3099,58
548,55	3116,30
548,64	3164,66
548,74	3089,41
548,83	3138,90
548,92	3227,26
549,02	3124,66
549,11	3281,27
549,20	3178,67
549,30	3121,95
549,39	3146,36
549,48	3225,90
549,58	3136,87
549,67	3196,98
549,76	3190,88
549,85	3156,08
549,95	3172,57
550,04	3217,99
550,13	3164,44
550,23	3207,15
550,32	3168,28
550,41	3161,95
550,50	3190,65
550,60	3295,51
550,69	3168,73
550,78	3133,70
550,88	3211,67
550,97	3196,53
551,06	3196,30
551,15	3163,53
551,25	3252,34
551,34	3159,01
551,43	3163,98
551,52	3201,72
551,62	3231,10
551,71	3245,34
551,80	3231,55
551,89	3228,84
551,99	3192,46
552,08	3220,03
552,17	3203,08
552,26	3276,07
552,36	3180,71
552,45	3172,80
552,54	3180,03
552,63	3267,94
552,73	3345,22
552,82	3345,90
552,91	3224,32
553,00	3373,70
553,10	3261,61
553,19	3353,36
553,28	3225,45
553,37	3268,39
553,46	3194,72
553,56	3268,84
553,65	3222,97
553,74	3208,28
553,83	3253,25
553,92	3269,07
554,02	3262,97
554,11	3228,62
554,20	3217,54
554,29	3377,76
554,38	3226,13
554,48	3253,47
554,57	3229,07
554,66	3262,74
554,75	3341,16
554,84	3339,57
554,94	3335,28
555,03	3332,34
555,12	3315,62
555,21	3304,09
555,30	3532,56
555,39	3385,45
555,49	3469,51
555,58	3527,82
555,67	3546,12
555,76	3610,30
555,85	3528,95
555,94	3530,98
556,03	3559,23
556,13	3625,22
556,22	3566,23
556,31	3579,79
556,40	3545,22
556,49	3647,59
556,58	3609,85
556,67	3598,78
556,77	3570,75
556,86	3778,66
556,95	3714,03
557,04	3843,97
557,13	3897,07
557,22	3917,86
557,31	3839,22
557,40	3877,86
557,50	3910,86
557,59	3800,80
557,68	3799,22
557,77	3827,92
557,86	3748,38
557,95	3657,98
558,04	3634,03
558,13	3610,75
558,22	3603,75
558,31	3559,91
558,41	3455,28
558,50	3564,65
558,59	3562,17
558,68	3557,87
558,77	3526,91
558,86	3432,68
558,95	3412,79
559,04	3498,67
559,13	3552,90
559,22	3513,13
559,31	3515,61
559,40	3486,69
559,49	3474,71
559,59	3539,57
559,68	3471,55
559,77	3592,45
559,86	3568,72
559,95	3514,48
560,04	3501,83
560,13	3477,65
560,22	3584,54
560,31	3483,52
560,40	3486,46
560,49	3424,77
560,58	3437,88
560,67	3402,85
560,76	3429,51
560,85	3445,11
560,94	3487,37
561,03	3449,40
561,12	3662,05
561,21	3605,33
561,30	3422,96
561,39	3448,72
561,48	3455,73
561,57	3394,49
561,66	3510,64
561,75	3585,44
561,84	3451,43
561,93	3415,28
562,02	3447,37
562,11	3417,31
562,20	3419,80
562,29	3479,91
562,38	3378,44
562,47	3518,78
562,56	3464,54
562,65	3482,17
562,74	3463,64
562,83	3681,71
562,92	3520,81
563,01	3576,86
563,10	3498,89
563,19	3523,07
563,28	3728,94
563,37	3605,33
563,46	3490,53
563,55	3508,83
563,64	3735,95
563,73	3529,85
563,82	3599,45
563,91	3646,91
564,00	3535,73
564,09	3494,60
564,18	3560,58
564,27	3504,09
564,35	3562,39
564,44	3531,66
564,53	3608,49
564,62	3572,34
564,71	3526,01
564,80	3550,19
564,89	3532,79
564,98	4996,48
565,07	3621,83
565,16	3467,71
565,25	3877,64
565,34	3545,90
565,43	3546,12
565,51	3550,87
565,60	3669,96
565,69	3522,39
565,78	3664,54
565,87	3502,96
565,96	3509,29
566,05	3620,70
566,14	3651,88
566,23	3622,28
566,32	3683,97
566,40	3638,55
566,49	3704,76
566,58	3561,94
566,67	3613,46
566,76	3553,80
566,85	3608,27
566,94	3582,96
567,03	3610,07
567,11	3596,97
567,20	3605,33
567,29	3668,83
567,38	3635,84
567,47	3578,89
567,56	3597,42
567,65	3596,29
567,73	3549,51
567,82	3520,13
567,91	3594,03
568,00	3597,65
568,09	3679,45
568,18	3587,93
568,27	3614,59
568,35	3643,75
568,44	3687,59
568,53	3629,06
568,62	3588,61
568,71	3595,39
568,80	3638,32
568,88	3675,38
568,97	3756,06
569,06	3619,11
569,15	3648,04
569,24	3711,54
569,32	3683,97
569,41	3641,26
569,50	3623,86
569,59	3609,17
569,68	3591,09
569,76	3660,02
569,85	3689,85
569,94	3661,37
570,03	3649,40
570,12	3678,77
570,20	3686,00
570,29	3676,29
570,38	3635,38
570,47	3663,63
570,56	3597,19
570,64	3635,38
570,73	3609,17
570,82	3738,66
570,91	3722,16
570,99	3593,58
571,08	3617,31
571,17	3642,39
571,26	3712,67
571,34	3641,49
571,43	3710,64
571,52	3709,51
571,61	3649,85
571,69	3661,15
571,78	3745,89
571,87	3771,43
571,96	3782,27
572,04	3770,75
572,13	3722,84
572,22	3693,46
572,31	3667,02
572,39	3710,41
572,48	3730,30
572,57	3713,80
572,66	3670,19
572,74	3656,18
572,83	3753,12
572,92	3686,91
573,00	3666,12
573,09	3717,42
573,18	3759,90
573,27	3727,36
573,35	3716,29
573,44	3646,68
573,53	3707,02
573,61	3723,07
573,70	3728,72
573,79	3680,81
573,87	3850,52
573,96	3686,23
574,05	3706,12
574,14	3712,67
574,22	3698,43
574,31	3765,10
574,40	3731,65
574,48	3738,21
574,57	3774,36
574,66	3729,62
574,74	3742,73
574,83	3821,37
574,92	3830,63
575,00	3766,45
575,09	3824,98
575,18	3786,12
575,26	3834,02
575,35	3724,87
575,43	3718,09
575,52	3811,88
575,61	3785,21
575,69	3783,63
575,78	3703,63
575,87	3859,33
575,95	3760,13
576,04	3721,26
576,13	3789,50
576,21	3733,69
576,30	3755,61
576,38	3753,57
576,47	3711,31
576,56	3733,46
576,64	3733,01
576,73	3791,31
576,82	3788,37
576,90	3795,83
576,99	3787,47
577,07	3745,66
577,16	3737,98
577,25	3804,87
577,33	3922,61
577,42	3796,51
577,50	3721,94
577,59	3804,65
577,68	3840,35
577,76	3775,95
577,85	3784,99
577,93	3765,32
578,02	3793,12
578,10	3776,85
578,19	3804,87
578,28	3754,70
578,36	3762,16
578,45	3761,03
578,53	3722,61
578,62	3790,18
578,70	3729,39
578,79	3756,06
578,88	3802,84
578,96	3789,73
579,05	3723,07
579,13	3872,44
579,22	3758,09
579,30	3766,23
579,39	3792,89
579,47	3897,75
579,56	3724,87
579,64	4030,18
579,73	3739,56
579,82	3778,66
579,90	3730,75
579,99	3787,25
580,07	3784,76
580,16	3822,72
580,24	3882,61
580,33	3723,74
580,41	3785,21
580,50	3779,56
580,58	3800,35
580,67	3790,18
580,75	3812,33
580,84	3791,76
580,92	3737,98
581,01	3902,95
581,09	3764,42
581,18	3789,96
581,26	3739,11
581,35	3730,07
581,43	3824,08
581,52	3810,75
581,60	3842,38
581,69	3793,35
581,77	3866,79
581,86	3792,89
581,94	3786,79
582,02	3823,85
582,11	3747,25
582,19	3847,13
582,28	3913,34
582,36	3923,74
582,45	3887,81
582,53	3775,72
582,62	3770,30
582,70	3779,56
582,79	3814,81
582,87	3735,04
582,96	3818,43
583,04	3898,65
583,12	3804,65
583,21	3818,20
583,29	3830,63
583,38	3827,24
583,46	3779,79
583,55	3822,95
583,63	3757,64
583,71	3822,27
583,80	3774,59
583,88	3764,19
583,97	3986,79
584,05	3868,15
584,13	3870,86
584,22	3851,88
584,30	3821,14
584,39	3886,90
584,47	3848,71
584,55	3817,98
584,64	3805,55
584,72	3810,52
584,81	3768,49
584,89	3794,25
584,97	3780,69
585,06	3732,56
585,14	3848,71
585,23	3836,74
585,31	3782,50
585,39	3750,64
585,48	3811,88
585,56	3777,98
585,64	3815,49
585,73	3846,45
585,81	3793,35
585,90	3869,73
585,98	3796,28
586,06	3816,85
586,15	3908,15
586,23	3765,10
586,31	3798,77
586,40	3763,97
586,48	3853,01
586,56	3798,54
586,65	3768,04
586,73	3784,08
586,81	3862,50
586,90	3788,15
586,98	3776,17
587,06	3746,12
587,15	3773,91
587,23	3776,17
587,31	3789,05
587,40	3745,89
587,48	3754,70
587,56	3885,32
587,65	3975,26
587,73	3814,81
587,81	3748,38
587,90	3897,07
587,98	3807,81
588,06	3738,88
588,14	3743,63
588,23	3735,72
588,31	3882,84
588,39	3827,24
588,48	3789,50
588,56	3732,56
588,64	3783,40
588,72	3775,72
588,81	3762,16
588,89	3772,33
588,97	3782,50
589,06	3849,39
589,14	3814,81
589,22	3812,56
589,30	3779,79
589,39	3760,13
589,47	3865,44
589,55	3904,53
589,63	3775,95
589,72	3784,99
589,80	3775,72
589,88	3787,70
589,96	3854,81
590,05	3756,29
590,13	3738,21
590,21	3836,74
590,29	3845,32
590,38	3836,28
590,46	3827,70
590,54	3744,08
590,62	3756,29
590,71	3820,92
590,79	3813,23
590,87	3728,04
590,95	3717,19
591,03	3748,38
591,12	3799,00
591,20	3725,10
591,28	3845,32
591,36	3782,05
591,44	3713,12
591,53	3716,74
591,61	3726,68
591,69	3701,15
591,77	3740,01
591,85	3747,70
591,94	3713,12
592,02	3731,43
592,10	3782,50
592,18	3794,02
592,26	3729,85
592,34	3704,76
592,43	3694,59
592,51	3680,36
592,59	3670,64
592,67	3715,16
592,75	3726,23
592,84	3739,79
592,92	3757,42
593,00	3692,56
593,08	3733,01
593,16	3735,50
593,24	3756,29
593,32	3810,07
593,41	3734,37
593,49	3639,00
593,57	3676,74
593,65	3671,32
593,73	3708,60
593,81	3706,34
593,89	3747,70
593,98	3721,71
594,06	3697,76
594,14	3699,79
594,22	3722,84
594,30	3689,62
594,38	3686,91
594,46	3805,78
594,54	3825,66
594,62	3759,90
594,71	3719,22
594,79	3732,33
594,87	3691,20
594,95	3731,20
595,03	3759,90
595,11	3697,30
595,19	3784,76
595,27	3685,10
595,35	3672,90
595,43	3710,86
595,52	3713,80
595,60	3707,47
595,68	3803,74
595,76	3633,80
595,84	3740,92
595,92	3637,87
596,00	3763,74
596,08	3733,46
596,16	3745,89
596,24	3684,65
596,32	3675,84
596,40	3719,00
596,48	3744,31
596,56	3770,52
596,64	3635,38
596,73	3667,02
596,81	3703,41
596,89	3701,60
596,97	3642,84
597,05	3904,30
597,13	3695,95
597,21	3642,39
597,29	3698,66
597,37	3769,62
597,45	3714,03
597,53	3675,38
597,61	3679,00
597,69	3704,76
597,77	3658,89
597,85	3634,48
597,93	3664,54
598,01	3675,84
598,09	3682,62
598,17	3685,55
598,25	3652,79
598,33	3655,95
598,41	3669,28
598,49	3593,35
598,57	3636,06
598,65	3614,59
598,73	3659,79
598,81	3700,92
598,89	3655,05
598,97	3628,38
599,05	3714,48
599,13	3646,46
599,21	3585,22
599,29	3680,36
599,37	3624,09
599,45	3618,66
599,53	3708,83
599,61	3611,66
599,69	3664,76
599,77	3625,44
599,85	3580,02
599,93	3613,69
600,00	3600,58
600,08	3648,04
600,16	3565,10
600,24	3588,61
600,32	3710,41
600,40	3711,99
600,48	3712,67
600,56	3708,15
600,64	3657,08
600,72	3589,96
600,80	3618,89
600,88	3602,17
600,96	3650,98
601,04	3566,69
601,12	3561,71
601,19	3553,13
601,27	3612,56
601,35	3593,80
601,43	3578,44
601,51	3620,02
601,59	3599,23
601,67	3582,28
601,75	3575,95
601,83	3603,97
601,91	3562,84
601,98	3569,40
602,06	3656,18
602,14	3598,10
602,22	3629,51
602,30	3639,45
602,38	3585,22
602,46	3568,95
602,54	3609,17
602,61	3607,36
602,69	3605,78
602,77	3509,29
602,85	3517,65
602,93	3514,03
603,01	3553,35
603,09	3615,27
603,17	3541,60
603,24	3582,73
603,32	3492,11
603,40	3557,19
603,48	3603,75
603,56	3507,48
603,64	3466,80
603,71	3516,52
603,79	3527,14
603,87	3536,63
603,95	3653,46
604,03	3528,95
604,11	3542,96
604,18	3540,70
604,26	3482,62
604,34	3469,29
604,42	3537,53
604,50	3478,55
604,57	3510,87
604,65	3474,71
604,73	3513,58
604,81	3530,75
604,89	3459,34
604,96	3501,38
605,04	3556,97
605,12	3471,77
605,20	3535,73
605,28	3572,34
605,35	3499,79
605,43	3498,89
605,51	3478,33
605,59	3503,86
605,67	3544,31
605,74	3480,59
605,82	3469,06
605,90	3447,37
605,98	3514,48
606,05	3520,13
606,13	3499,12
606,21	3470,19
606,29	3487,14
606,36	3480,59
606,44	3424,99
606,52	3480,81
606,60	3434,03
606,67	3408,95
606,75	3475,16
606,83	3402,85
606,91	3479,91
606,98	3422,51
607,06	3406,01
607,14	3449,85
607,22	3408,27
607,29	3417,76
607,37	3478,55
607,45	3451,89
607,52	3467,71
607,60	3479,23
607,68	3396,29
607,76	3451,66
607,83	3378,44
607,91	3480,81
607,99	3427,71
608,06	3457,31
608,14	3384,09
608,22	3403,07
608,30	3465,90
608,37	3384,09
608,45	3338,67
608,53	3437,65
608,60	3413,02
608,68	3363,53
608,76	3376,63
608,83	3443,30
608,91	3341,16
608,99	3390,19
609,06	3421,83
609,14	3370,98
609,22	3365,11
609,29	3341,38
609,37	3323,75
609,45	3411,44
609,52	3356,52
609,60	3363,75
609,68	3324,43
609,75	3406,24
609,83	3309,97
609,91	3501,38
609,98	3330,99
610,06	3301,38
610,13	3368,72
610,21	3358,33
610,29	3293,25
610,36	3288,95
610,44	3291,89
610,52	3314,26
610,59	3284,89
610,67	3285,56
610,74	3315,39
610,82	3307,26
610,90	3355,39
610,97	3319,69
611,05	3338,90
611,13	3308,84
611,20	3380,93
611,28	3287,37
611,35	3300,03
611,43	3210,31
611,51	3336,18
611,58	3281,50
611,66	3361,95
611,73	3227,49
611,81	3306,13
611,88	3298,44
611,96	3267,94
612,04	3210,31
612,11	3217,99
612,19	3349,06
612,26	3214,15
612,34	3236,98
612,41	3243,30
612,49	3184,78
612,57	3136,19
612,64	3191,78
612,72	3272,46
612,79	3376,18
612,87	3150,20
612,94	3140,48
613,02	3209,86
613,09	3197,43
613,17	3170,09
613,24	3159,01
613,32	3229,29
613,40	3168,28
613,47	3181,61
613,55	3134,83
613,62	3240,82
613,70	3219,80
613,77	3148,17
613,85	3216,41
613,92	3112,46
614,00	3122,40
614,07	3131,44
614,15	3079,24
614,22	3070,20
614,30	3147,26
614,37	3059,13
614,45	3085,34
614,52	3055,96
614,60	3053,93
614,67	3128,73
614,75	3057,55
614,82	3072,24
614,90	3069,30
614,97	3045,34
615,05	3172,35
615,12	3102,97
615,20	3008,51
615,27	3009,64
615,34	3013,48
615,42	2999,24
615,49	3032,91
615,57	2930,09
615,64	2948,85
615,72	2986,14
615,79	2975,51
615,87	2986,81
615,94	3039,47
616,02	2963,99
616,09	2989,07
616,16	2968,28
616,24	2961,73
616,31	2898,45
616,39	2989,98
616,46	2983,88
616,54	2940,49
616,61	2996,31
616,68	2891,22
616,76	2898,68
616,83	2902,97
616,91	2861,62
616,98	2825,24
617,06	2916,31
617,13	2844,44
617,20	2811,23
617,28	2819,81
617,35	2781,40
617,43	2884,90
617,50	2783,66
617,57	2814,84
>>>>>End Processed Spectral Data<<<<<
