SpectraSuite Datei
++++++++++++++++++++++++++++++++++++
Datum: Sun Jan 04 06:26:11 CET 2004
Benutzer: H. Stützler
Dark-Spektrum vorhanden: Nein
Referenz-Spektrum vorhanden: Nein
Zahl der probierten Teilspektren: 1
Spektrometer: USB2+H04734
Integrationszeit (usec): 1000000 (USB2+H04734)
Spektren Durchschnitt berechnet: 10 (USB2+H04734)
Boxcar Glättung: 0 (USB2+H04734)
Dunkelstromkorrektur: Nein (USB2+H04734)
Puls/Lampe aktiviert: Nein (USB2+H04734)
Correct for Detector Non-linearity: Nein (USB2+H04734)
Streulichtkorrektur: Nein (USB2+H04734)
Anzahl Pixel in verarbeitetem Spektrum: 2048
>>>>>Begin Processed Spectral Data<<<<<
418,45	1229,12
418,57	1229,12
418,69	1229,12
418,80	1145,28
418,92	1134,89
419,04	1370,81
419,16	1209,23
419,28	1204,04
419,40	1174,88
419,52	1208,56
419,64	1179,18
419,75	1167,43
419,87	1197,03
419,99	1175,11
420,11	1198,16
420,23	1211,27
420,35	1286,29
420,47	1252,62
420,58	1234,09
420,70	1269,12
420,82	1263,70
420,94	1306,86
421,06	1388,44
421,18	1333,52
421,29	1334,88
421,41	1338,27
421,53	1354,31
421,65	1405,16
421,77	1422,79
421,89	1368,55
422,00	1481,54
422,12	1370,59
422,24	1352,28
422,36	1464,82
422,48	1462,56
422,59	1402,45
422,71	1463,92
422,83	1391,60
422,95	1391,60
423,07	1428,21
423,18	1503,69
423,30	1459,62
423,42	1394,31
423,54	1428,21
423,66	1386,63
423,77	1410,13
423,89	1402,00
424,01	1400,64
424,13	1375,56
424,25	1389,34
424,36	1440,19
424,48	1413,07
424,60	1397,03
424,72	1455,33
424,84	1400,87
424,95	1461,20
425,07	1410,36
425,19	1409,23
425,31	1416,01
425,42	1381,43
425,54	1428,21
425,66	1420,53
425,78	1378,95
425,89	1398,83
426,01	1368,10
426,13	1387,76
426,25	1446,74
426,36	1384,37
426,48	1423,24
426,60	1445,39
426,72	1386,63
426,83	1410,36
426,95	1402,00
427,07	1396,35
427,19	1487,87
427,30	1398,61
427,42	1335,78
427,54	1380,08
427,66	1376,91
427,77	1379,17
427,89	1405,84
428,01	1397,48
428,12	1421,43
428,24	1358,61
428,36	1389,57
428,48	1354,77
428,59	1375,56
428,71	1397,25
428,83	1355,90
428,94	1387,08
429,06	1381,43
429,18	1439,28
429,30	1398,38
429,41	1383,69
429,53	1457,81
429,65	1442,22
429,76	1429,34
429,88	1383,69
430,00	1409,45
430,11	1448,32
430,23	1382,79
430,35	1474,76
430,47	1379,62
430,58	1379,40
430,70	1432,50
430,82	1422,11
430,93	1556,34
431,05	1432,96
431,17	1418,72
431,28	1450,13
431,40	1349,57
431,52	1473,18
431,63	1384,60
431,75	1371,49
431,87	1403,13
431,98	1444,48
432,10	1404,48
432,22	1403,35
432,33	1461,66
432,45	1394,77
432,56	1426,86
432,68	1426,40
432,80	1369,00
432,91	1447,87
433,03	1420,98
433,15	1448,78
433,26	1402,67
433,38	1369,91
433,50	1354,77
433,61	1446,97
433,73	1464,59
433,84	1398,38
433,96	1385,73
434,08	1384,60
434,19	1383,92
434,31	1395,44
434,43	1392,51
434,54	1406,06
434,66	1358,83
434,77	1357,48
434,89	1438,15
435,01	1402,45
435,12	1359,06
435,24	1388,66
435,35	1380,30
435,47	1508,89
435,59	1396,57
435,70	1372,39
435,82	1389,12
435,93	1457,81
436,05	1409,23
436,17	1391,83
436,28	1427,31
436,40	1411,26
436,51	1374,43
436,63	1398,16
436,74	1449,68
436,86	1492,84
436,98	1633,40
437,09	1388,89
437,21	1447,42
437,32	1383,01
437,44	1442,00
437,55	1401,55
437,67	1743,23
437,79	1525,84
437,90	1423,69
438,02	1380,08
438,13	2231,13
438,25	1470,02
438,36	1459,62
438,48	1418,95
438,59	1463,01
438,71	1418,27
438,83	1404,26
438,94	1365,39
439,06	1458,49
439,17	1460,98
439,29	1405,39
439,40	1409,23
439,52	1386,40
439,63	1422,34
439,75	1370,81
439,86	1370,13
439,98	1419,40
440,09	1456,23
440,21	1393,64
440,32	1389,57
440,44	1391,60
440,55	1395,44
440,67	1382,56
440,78	1458,27
440,90	1385,05
441,01	1389,34
441,13	1384,14
441,24	1416,69
441,36	1474,09
441,47	1390,47
441,59	1442,22
441,70	1349,80
441,82	1446,52
441,93	1400,42
442,05	1372,17
442,16	1409,68
442,28	1363,81
442,39	1420,53
442,51	1438,38
442,62	1383,24
442,74	1438,38
442,85	1408,32
442,97	1504,37
443,08	1451,04
443,20	1437,70
443,31	1409,68
443,43	1385,95
443,54	1429,57
443,66	1374,20
443,77	1383,47
443,88	1349,12
444,00	1418,72
444,11	1434,09
444,23	1492,84
444,34	1384,60
444,46	1378,27
444,57	1458,27
444,69	1470,92
444,80	1434,31
444,91	1535,33
445,03	1377,36
445,14	1437,25
445,26	1371,04
445,37	1371,49
445,49	1390,25
445,60	1462,33
445,71	1504,37
445,83	1397,70
445,94	1380,30
446,06	1439,06
446,17	1364,03
446,29	1364,71
446,40	1386,63
446,51	1463,46
446,63	1403,13
446,74	1374,43
446,86	1381,66
446,97	1460,75
447,08	1396,35
447,20	1402,45
447,31	1373,75
447,43	1401,09
447,54	1405,61
447,65	1435,22
447,77	1387,99
447,88	1380,75
448,00	1437,48
448,11	1355,44
448,22	1385,27
448,34	1419,62
448,45	1362,45
448,56	1403,13
448,68	1421,66
448,79	1470,47
448,90	1419,85
449,02	1369,91
449,13	1398,16
449,25	1422,34
449,36	1398,83
449,47	1378,72
449,59	1455,78
449,70	1403,13
449,81	1392,73
449,93	1401,77
450,04	1392,73
450,15	1398,61
450,27	1416,91
450,38	1422,56
450,49	1383,01
450,61	1484,48
450,72	1407,87
450,83	1441,77
450,95	1406,97
451,06	1445,61
451,17	1508,21
451,29	1441,77
451,40	1384,82
451,51	1354,99
451,63	1376,01
451,74	1461,88
451,85	1405,39
451,97	1442,45
452,08	1399,06
452,19	1401,09
452,31	1472,96
452,42	1393,86
452,53	1487,42
452,65	1453,75
452,76	1366,07
452,87	1391,15
452,98	1376,24
453,10	1400,87
453,21	1375,56
453,32	1415,78
453,44	1387,08
453,55	1354,54
453,66	1545,95
453,77	1433,18
453,89	1433,18
454,00	1478,83
454,11	1398,16
454,23	1419,17
454,34	1416,46
454,45	1370,81
454,56	1432,73
454,68	1500,98
454,79	1413,52
454,90	1422,11
455,01	1392,73
455,13	1347,99
455,24	1462,33
455,35	1386,86
455,46	1350,70
455,58	1374,65
455,69	1469,11
455,80	1438,83
455,91	1371,04
456,03	1385,27
456,14	1453,52
456,25	1403,35
456,36	1381,43
456,48	1412,84
456,59	1468,66
456,70	1385,05
456,81	1438,83
456,92	1502,56
457,04	1461,43
457,15	1543,91
457,26	1391,60
457,37	1395,44
457,49	1376,46
457,60	1364,03
457,71	1428,66
457,82	1437,70
457,93	1417,82
458,05	1434,54
458,16	1378,49
458,27	1385,95
458,38	1409,00
458,49	1434,99
458,61	1403,13
458,72	1420,53
458,83	1429,57
458,94	1460,98
459,05	1451,71
459,17	1649,00
459,28	1378,27
459,39	1385,95
459,50	1394,54
459,61	1436,12
459,72	1382,11
459,84	1400,42
459,95	1411,26
460,06	1636,79
460,17	1382,11
460,28	1403,13
460,39	1414,88
460,51	1425,95
460,62	1402,45
460,73	1401,32
460,84	1333,30
460,95	1477,25
461,06	1496,01
461,18	1480,64
461,29	1474,76
461,40	1428,21
461,51	1444,48
461,62	1559,51
461,73	1397,25
461,84	1436,57
461,96	1449,00
462,07	1451,94
462,18	1411,04
462,29	1407,65
462,40	1465,72
462,51	1409,91
462,62	1479,06
462,73	1488,55
462,85	1456,91
462,96	1431,60
463,07	1459,40
463,18	1550,02
463,29	1440,87
463,40	1412,39
463,51	1373,52
463,62	1369,68
463,73	1440,41
463,85	1383,24
463,96	1406,74
464,07	1430,24
464,18	1395,67
464,29	1379,17
464,40	1480,41
464,51	1406,74
464,62	1409,23
464,73	1389,79
464,84	1453,30
464,95	1408,55
465,06	1415,33
465,18	1361,77
465,29	1410,13
465,40	1389,34
465,51	1410,13
465,62	1444,26
465,73	1404,71
465,84	1423,47
465,95	1438,61
466,06	1377,82
466,17	1423,01
466,28	1412,17
466,39	1467,08
466,50	1360,87
466,61	1377,82
466,72	1432,28
466,83	1377,59
466,95	1391,15
467,06	1373,52
467,17	1411,49
467,28	1366,74
467,39	1408,55
467,50	1423,92
467,61	1376,69
467,72	1378,04
467,83	1359,74
467,94	1409,23
468,05	1373,75
468,16	1427,76
468,27	1404,26
468,38	1361,55
468,49	1457,81
468,60	1364,48
468,71	1477,70
468,82	1466,40
468,93	1450,81
469,04	1503,92
469,15	1414,88
469,26	1390,02
469,37	1384,82
469,48	1501,20
469,59	1407,87
469,70	1377,36
469,81	1417,59
469,92	1365,84
470,03	1442,45
470,14	1369,23
470,25	1458,49
470,36	1418,49
470,47	1347,31
470,58	1355,22
470,69	1445,84
470,80	1451,71
470,91	1376,91
471,02	1386,86
471,13	1417,36
471,24	1441,32
471,35	1392,51
471,46	1485,61
471,56	1470,24
471,67	1442,67
471,78	1474,99
471,89	1361,09
472,00	1378,72
472,11	1437,25
472,22	1434,99
472,33	1377,82
472,44	1406,97
472,55	1384,60
472,66	1410,13
472,77	1393,64
472,88	1548,66
472,99	1470,92
473,10	1380,30
473,21	1379,17
473,32	1403,13
473,42	1362,22
473,53	1390,92
473,64	1432,28
473,75	1432,28
473,86	1422,34
473,97	1424,60
474,08	1417,82
474,19	1454,65
474,30	1500,53
474,41	1444,93
474,52	1400,87
474,62	1414,88
474,73	1387,76
474,84	1509,11
474,95	1434,54
475,06	1458,27
475,17	1389,57
475,28	1355,22
475,39	1386,18
475,50	1378,04
475,60	1385,27
475,71	1382,34
475,82	1464,82
475,93	1369,46
476,04	1452,62
476,15	1413,30
476,26	1423,24
476,37	1408,55
476,47	1405,39
476,58	1390,02
476,69	1366,52
476,80	1363,58
476,91	1407,87
477,02	1407,19
477,13	1422,56
477,23	1415,33
477,34	1411,04
477,45	1434,31
477,56	1393,41
477,67	1400,19
477,78	1393,18
477,89	1396,57
477,99	1387,31
478,10	1431,37
478,21	1423,01
478,32	1422,34
478,43	1380,98
478,54	1515,21
478,64	1419,40
478,75	1409,00
478,86	1397,25
478,97	1381,21
479,08	1387,76
479,18	1396,57
479,29	1380,75
479,40	1361,55
479,51	1348,89
479,62	1396,35
479,72	1399,06
479,83	1377,36
479,94	1418,27
480,05	1431,83
480,16	1354,54
480,26	1411,26
480,37	1379,17
480,48	1446,29
480,59	1406,97
480,70	1408,55
480,80	1376,01
480,91	1380,75
481,02	1348,67
481,13	1420,08
481,24	1408,10
481,34	1373,98
481,45	1519,73
481,56	1407,87
481,67	1403,58
481,77	1368,55
481,88	1366,29
481,99	1412,17
482,10	1427,99
482,20	1747,52
482,31	1391,38
482,42	1420,08
482,53	1386,86
482,63	1486,74
482,74	1437,25
482,85	1376,01
482,96	1389,79
483,06	1356,80
483,17	1460,07
483,28	1362,00
483,39	1397,70
483,49	1444,26
483,60	1544,59
483,71	1396,80
483,81	1477,93
483,92	1401,77
484,03	1407,65
484,14	1402,00
484,24	1385,27
484,35	1427,31
484,46	1403,13
484,57	1385,50
484,67	1438,15
484,78	1385,27
484,89	1523,58
484,99	1389,57
485,10	1406,52
485,21	1441,54
485,31	1403,13
485,42	1419,40
485,53	1390,47
485,63	1423,24
485,74	1498,72
485,85	1560,64
485,96	1478,15
486,06	1390,70
486,17	1412,17
486,28	1421,43
486,38	1381,88
486,49	1429,57
486,60	1372,39
486,70	1366,97
486,81	1381,21
486,92	1384,60
487,02	1382,11
487,13	1391,15
487,24	1397,70
487,34	1390,25
487,45	1490,81
487,56	1393,64
487,66	1385,95
487,77	1422,34
487,87	1402,22
487,98	1353,18
488,09	1392,96
488,19	1366,29
488,30	1517,93
488,41	1386,86
488,51	1371,49
488,62	1378,72
488,73	1385,05
488,83	1422,11
488,94	1456,01
489,04	1506,63
489,15	1373,52
489,26	1369,68
489,36	1430,70
489,47	1390,92
489,58	1392,51
489,68	1433,18
489,79	1385,73
489,89	1412,17
490,00	1405,61
490,11	1416,01
490,21	1411,04
490,32	1387,99
490,42	1401,32
490,53	1424,37
490,64	1377,82
490,74	1373,07
490,85	1377,82
490,95	1424,37
491,06	1425,50
491,16	1415,10
491,27	1420,75
491,38	1408,32
491,48	1536,91
491,59	1479,06
491,69	1429,57
491,80	1392,51
491,90	1481,99
492,01	1392,51
492,12	1432,73
492,22	1410,58
492,33	1462,56
492,43	1409,00
492,54	1348,89
492,64	1392,05
492,75	1409,91
492,86	1412,84
492,96	1404,71
493,07	1370,13
493,17	1403,80
493,28	1413,52
493,38	1459,40
493,49	1403,35
493,59	1435,22
493,70	1416,01
493,80	1383,47
493,91	1350,92
494,01	1384,82
494,12	1393,18
494,22	1457,36
494,33	1502,33
494,43	1459,62
494,54	1513,18
494,64	1434,31
494,75	1383,01
494,86	1451,26
494,96	1409,91
495,07	1402,45
495,17	1479,06
495,28	1402,22
495,38	1393,18
495,49	1420,08
495,59	1423,47
495,69	1416,91
495,80	1476,12
495,90	1403,13
496,01	1374,88
496,11	1410,58
496,22	1418,27
496,32	1383,01
496,43	1438,61
496,53	1428,66
496,64	1401,32
496,74	1426,40
496,85	1443,58
496,95	1416,69
497,06	1402,22
497,16	1440,87
497,27	1417,59
497,37	1456,23
497,48	1390,25
497,58	1401,77
497,68	1398,83
497,79	1460,30
497,89	1425,73
498,00	1427,53
498,10	1380,75
498,21	1466,18
498,31	1376,24
498,42	1401,09
498,52	1478,15
498,62	1401,09
498,73	1421,66
498,83	1433,18
498,94	1402,45
499,04	1465,72
499,15	1397,93
499,25	1386,63
499,35	1462,33
499,46	1499,40
499,56	1550,92
499,67	1455,10
499,77	1371,94
499,87	1394,77
499,98	1396,80
500,08	1366,29
500,19	1390,92
500,29	1423,01
500,39	1422,56
500,50	1463,24
500,60	1422,56
500,71	1419,62
500,81	1435,22
500,91	1390,25
501,02	1406,97
501,12	1444,71
501,22	1402,67
501,33	1441,09
501,43	1463,24
501,54	1382,34
501,64	1386,63
501,74	1414,20
501,85	1490,81
501,95	1395,90
502,05	1384,37
502,16	1414,20
502,26	1509,79
502,37	1434,09
502,47	1421,88
502,57	1387,76
502,68	1383,92
502,78	1376,69
502,88	1471,60
502,99	1421,43
503,09	1436,57
503,19	1390,25
503,30	1385,73
503,40	1407,87
503,50	1417,59
503,61	1432,05
503,71	1409,68
503,81	1413,97
503,92	1416,69
504,02	1477,25
504,12	1583,46
504,23	1500,98
504,33	1419,40
504,43	1424,37
504,54	1485,38
504,64	1464,82
504,74	1584,37
504,84	1442,45
504,95	1406,74
505,05	1380,75
505,15	1490,81
505,26	1407,87
505,36	1403,80
505,46	1399,51
505,56	1458,49
505,67	1448,10
505,77	1450,58
505,87	1415,10
505,98	1387,53
506,08	1420,53
506,18	1450,81
506,28	1434,99
506,39	1422,79
506,49	1410,81
506,59	1412,84
506,70	1401,09
506,80	1447,19
506,90	1536,46
507,00	1393,18
507,11	1452,39
507,21	1484,25
507,31	1458,27
507,41	1417,59
507,52	1442,67
507,62	1430,02
507,72	1490,81
507,82	1481,99
507,93	1438,61
508,03	1484,03
508,13	1450,81
508,23	1450,58
508,34	1463,69
508,44	1407,19
508,54	1415,10
508,64	1436,35
508,74	1404,48
508,85	1431,83
508,95	1425,50
509,05	1400,64
509,15	1434,09
509,26	1467,53
509,36	1411,04
509,46	1457,14
509,56	1414,65
509,66	1443,80
509,77	1435,67
509,87	1459,40
509,97	1439,96
510,07	1439,96
510,17	1401,32
510,28	1588,66
510,38	1496,91
510,48	1426,18
510,58	1456,91
510,68	1444,93
510,78	1453,07
510,89	1433,63
510,99	1397,25
511,09	1501,88
511,19	1466,18
511,29	1398,38
511,39	1494,20
511,50	1519,73
511,60	1422,11
511,70	1485,84
511,80	1494,65
511,90	1492,62
512,00	1452,84
512,11	1422,79
512,21	1456,23
512,31	1431,83
512,41	1549,11
512,51	1468,21
512,61	1584,59
512,71	1461,66
512,82	1452,62
512,92	1421,21
513,02	1487,42
513,12	1474,99
513,22	1444,26
513,32	1512,28
513,42	1490,13
513,53	1505,95
513,63	1496,68
513,73	1530,36
513,83	1434,76
513,93	1498,94
514,03	1494,42
514,13	1568,77
514,23	1456,68
514,33	1451,04
514,44	1477,02
514,54	1479,96
514,64	1594,76
514,74	1481,54
514,84	1501,88
514,94	1533,74
515,04	1544,82
515,14	1503,01
515,24	1510,24
515,34	1506,40
515,44	1464,59
515,55	1443,13
515,65	1526,51
515,75	1486,06
515,85	1483,12
515,95	1555,67
516,05	1573,97
516,15	1531,94
516,25	1480,19
516,35	1497,14
516,45	1517,02
516,55	1518,83
516,65	1544,37
516,75	1648,32
516,85	1550,47
516,95	1585,72
517,05	1601,99
517,16	1520,86
517,26	1704,59
517,36	1565,83
517,46	1545,95
517,56	1589,34
517,66	1627,30
517,76	1699,16
517,86	1813,06
517,96	2048,31
518,06	2208,53
518,16	2486,04
518,26	2764,00
518,36	2898,68
518,46	3087,15
518,56	3204,21
518,66	3124,89
518,76	2942,30
518,86	2803,09
518,96	2529,88
519,06	2381,41
519,16	2218,47
519,26	2060,74
519,36	2038,36
519,46	1997,01
519,56	2023,90
519,66	2067,52
519,76	1929,21
519,86	1856,90
519,96	1896,45
520,06	1801,76
520,16	1866,39
520,26	1777,81
520,36	1680,41
520,46	1684,70
520,56	1656,91
520,66	1647,87
520,76	1613,06
520,86	1627,08
520,96	1707,53
521,06	1638,60
521,16	1623,91
521,26	1630,92
521,35	1672,72
521,45	1600,86
521,55	1623,46
521,65	1640,41
521,75	1613,06
521,85	1601,54
521,95	1661,43
522,05	1601,31
522,15	1604,70
522,25	2024,35
522,35	1688,77
522,45	1648,77
522,55	1703,23
522,65	1655,55
522,75	1632,95
522,85	1656,23
522,94	1649,45
523,04	1686,74
523,14	1664,81
523,24	1600,41
523,34	1613,52
523,44	1604,93
523,54	1557,47
523,64	1574,20
523,74	1635,89
523,84	1574,65
523,94	1560,41
524,03	1485,61
524,13	1495,33
524,23	1512,50
524,33	1445,16
524,43	1446,52
524,53	1437,93
524,63	1402,45
524,73	1391,83
524,83	1375,33
524,92	1413,07
525,02	1358,61
525,12	1463,69
525,22	1423,24
525,32	1376,69
525,42	1454,43
525,52	1442,22
525,61	1415,78
525,71	1381,43
525,81	1422,56
525,91	1387,76
526,01	1410,58
526,11	1429,79
526,21	1453,30
526,30	1414,20
526,40	1380,98
526,50	1429,57
526,60	1429,57
526,70	1412,62
526,80	1427,76
526,89	1398,38
526,99	1387,99
527,09	1415,78
527,19	1402,00
527,29	1415,10
527,39	1390,02
527,48	1440,41
527,58	1444,93
527,68	1362,00
527,78	1467,31
527,88	1511,15
527,97	1415,78
528,07	1367,20
528,17	1438,83
528,27	1440,64
528,37	1397,70
528,46	1386,40
528,56	1494,88
528,66	1456,01
528,76	1366,97
528,86	1431,83
528,95	1389,34
529,05	1416,46
529,15	1422,11
529,25	1436,80
529,35	1450,81
529,44	1436,80
529,54	1473,86
529,64	1426,63
529,74	1388,44
529,83	1369,23
529,93	1389,34
530,03	1425,73
530,13	1418,49
530,22	1477,93
530,32	1462,79
530,42	1462,11
530,52	1387,31
530,61	1439,06
530,71	1389,79
530,81	1461,20
530,91	1471,15
531,00	1550,69
531,10	1669,11
531,20	1840,40
531,30	1939,38
531,39	2031,58
531,49	2161,53
531,59	2444,00
531,69	2361,07
531,78	2251,47
531,88	2239,49
531,98	2116,78
532,07	1898,03
532,17	1781,42
532,27	1675,89
532,37	1517,02
532,46	1487,87
532,56	1435,22
532,66	1375,11
532,75	1438,61
532,85	1413,75
532,95	1409,45
533,04	1411,26
533,14	1447,65
533,24	1450,13
533,34	1393,86
533,43	1444,71
533,53	1361,32
533,63	1420,30
533,72	1406,29
533,82	1387,08
533,92	1360,19
534,01	1579,62
534,11	1573,97
534,21	1439,96
534,30	1392,96
534,40	1415,10
534,50	1366,74
534,59	1377,36
534,69	1392,96
534,79	1392,51
534,88	1491,71
534,98	1453,52
535,08	1369,68
535,17	1441,77
535,27	1413,07
535,36	1392,28
535,46	1423,92
535,56	1364,94
535,65	1424,14
535,75	1463,92
535,85	1421,66
535,94	1396,12
536,04	1406,52
536,14	1449,91
536,23	1482,45
536,33	1397,93
536,42	1441,09
536,52	1413,97
536,62	1372,62
536,71	1454,65
536,81	1418,49
536,90	1415,10
537,00	1430,92
537,10	1411,94
537,19	1431,15
537,29	1471,37
537,38	1495,33
537,48	1460,53
537,58	1488,77
537,67	1486,74
537,77	1503,01
537,86	1521,32
537,96	1609,00
538,06	1591,82
538,15	1626,85
538,25	1846,73
538,34	1901,64
538,44	1910,68
538,53	1856,45
538,63	1915,66
538,73	1898,03
538,82	1873,17
538,92	1857,35
539,01	1960,40
539,11	1837,24
539,20	2004,47
539,30	1917,01
539,39	1881,53
539,49	1954,30
539,59	1980,96
539,68	2131,47
539,78	2180,73
539,87	2138,93
539,97	2148,19
540,06	2151,13
540,16	2153,16
540,25	2210,79
540,35	2316,10
540,44	2324,91
540,54	2356,55
540,63	2338,24
540,73	2305,25
540,82	2380,50
540,92	2363,78
541,01	2431,35
541,11	2494,17
541,20	2462,76
541,30	2476,09
541,39	2475,87
541,49	2441,52
541,58	2571,46
541,68	2539,82
541,77	2509,54
541,87	2459,14
541,96	2452,82
542,06	2571,68
542,15	2579,37
542,25	2810,10
542,34	2653,49
542,44	2635,86
542,53	2663,43
542,63	2715,41
542,72	2736,88
542,82	2730,55
542,91	2775,97
543,01	2809,42
543,10	2900,04
543,20	2921,73
543,29	3053,25
543,38	3126,92
543,48	3297,31
543,57	3555,39
543,67	3776,40
543,76	4177,52
543,86	4504,06
543,95	4884,17
544,05	5225,85
544,14	5457,94
544,23	5407,09
544,33	5320,09
544,42	5330,26
544,52	5252,52
544,61	5555,33
544,71	6314,86
544,80	7703,30
544,89	9562,69
544,99	11671,11
545,08	14011,38
545,18	15838,91
545,27	17188,25
545,36	17344,40
545,46	16394,60
545,55	14832,15
545,65	12658,65
545,74	10307,75
545,84	8014,25
545,93	6219,27
546,02	4823,38
546,12	4015,71
546,21	3465,67
546,30	3233,36
546,40	3089,86
546,49	2957,44
546,59	2924,67
546,68	2886,93
546,77	2897,78
546,87	2839,47
546,96	2858,68
547,05	2778,91
547,15	2741,17
547,24	2762,19
547,34	2737,10
547,43	2764,67
547,52	2804,67
547,62	2754,28
547,71	2771,23
547,80	2780,27
547,90	2721,28
547,99	2835,41
548,08	2737,78
548,18	2629,54
548,27	2637,22
548,36	2634,51
548,46	2642,87
548,55	2636,31
548,64	2666,82
548,74	2643,55
548,83	2684,90
548,92	2738,91
549,02	2634,51
549,11	2798,34
549,20	2703,43
549,30	2625,92
549,39	2695,52
549,48	2723,54
549,58	2655,07
549,67	2693,71
549,76	2716,76
549,85	2679,93
549,95	2677,44
550,04	2719,25
550,13	2648,29
550,23	2736,65
550,32	2657,33
550,41	2656,65
550,50	2710,21
550,60	2777,10
550,69	2700,72
550,78	2647,61
550,88	2703,43
550,97	2713,37
551,06	2708,86
551,15	2702,75
551,25	2778,01
551,34	2667,50
551,43	2664,56
551,52	2706,60
551,62	2726,26
551,71	2773,71
551,80	2747,27
551,89	2705,69
551,99	2709,31
552,08	2731,91
552,17	2739,81
552,26	2771,90
552,36	2700,27
552,45	2704,79
552,54	2688,74
552,63	2750,44
552,73	2855,29
552,82	2857,55
552,91	2753,60
553,00	2900,94
553,10	2709,76
553,19	2823,20
553,28	2712,92
553,37	2781,17
553,46	2693,49
553,56	2804,22
553,65	2677,90
553,74	2686,03
553,83	2744,33
553,92	2717,44
554,02	2781,85
554,11	2723,09
554,20	2677,67
554,29	2832,92
554,38	2714,96
554,48	2756,54
554,57	2731,45
554,66	2746,37
554,75	2779,59
554,84	2815,97
554,94	2806,03
555,03	2772,36
555,12	2773,71
555,21	2778,91
555,30	2944,10
555,39	2811,68
555,49	2846,25
555,58	2912,92
555,67	2967,15
555,76	3008,06
555,85	2949,30
555,94	2936,42
556,03	2958,11
556,13	2988,62
556,22	2932,13
556,31	2984,10
556,40	2946,14
556,49	3026,14
556,58	2989,98
556,67	2998,79
556,77	2975,06
556,86	3102,97
556,95	3054,16
557,04	3187,94
557,13	3229,07
557,22	3208,96
557,31	3174,15
557,40	3217,99
557,50	3259,58
557,59	3159,69
557,68	3137,77
557,77	3163,31
557,86	3088,28
557,95	3034,95
558,04	3027,04
558,13	3034,72
558,22	2984,33
558,31	2971,00
558,41	2914,50
558,50	2968,51
558,59	2994,95
558,68	3016,64
558,77	3003,54
558,86	2905,69
558,95	2856,20
559,04	2947,95
559,13	2960,15
559,22	2923,76
559,31	2927,38
559,40	2910,66
559,49	2936,87
559,59	2998,11
559,68	2902,07
559,77	2986,14
559,86	3033,82
559,95	2898,23
560,04	2896,65
560,13	2898,00
560,22	3022,07
560,31	2902,30
560,40	2923,31
560,49	2872,92
560,58	2849,64
560,67	2902,97
560,76	2870,66
560,85	2852,58
560,94	2981,16
561,03	2865,01
561,12	3073,82
561,21	3062,07
561,30	2894,84
561,39	2877,89
561,48	2892,13
561,57	2856,42
561,66	2950,88
561,75	3020,26
561,84	2880,60
561,93	2864,78
562,02	2910,88
562,11	2865,46
562,20	2877,44
562,29	2911,11
562,38	2844,90
562,47	2972,35
562,56	2932,80
562,65	2899,36
562,74	2899,13
562,83	3112,01
562,92	2949,30
563,01	3021,84
563,10	2912,69
563,19	2927,83
563,28	3155,62
563,37	3015,74
563,46	2933,03
563,55	2951,56
563,64	3144,78
563,73	2910,21
563,82	2968,28
563,91	3079,02
564,00	2961,50
564,09	2889,87
564,18	2954,72
564,27	2940,26
564,35	2962,18
564,44	2987,72
564,53	3008,51
564,62	2998,79
564,71	2991,56
564,80	2948,17
564,89	2953,59
564,98	3570,30
565,07	3003,99
565,16	2928,96
565,25	3248,50
565,34	2928,96
565,43	2940,49
565,51	2946,14
565,60	3050,09
565,69	2959,02
565,78	3071,11
565,87	2952,69
565,96	2900,49
566,05	3040,60
566,14	3106,58
566,23	3021,84
566,32	3087,15
566,40	3056,64
566,49	3120,37
566,58	2990,20
566,67	3022,29
566,76	2967,38
566,85	2982,75
566,94	3001,50
567,03	3029,75
567,11	2981,39
567,20	2989,98
567,29	3089,64
567,38	3019,81
567,47	2969,41
567,56	2985,01
567,65	3033,59
567,73	2959,92
567,82	2961,28
567,91	3008,06
568,00	3006,93
568,09	3078,56
568,18	2986,59
568,27	3042,18
568,35	3033,14
568,44	3052,80
568,53	3049,86
568,62	2987,72
568,71	2985,01
568,80	3012,58
568,88	3081,05
568,97	3144,78
569,06	2988,17
569,15	3006,25
569,24	3071,78
569,32	3035,85
569,41	3017,77
569,50	3006,47
569,59	2971,45
569,68	2980,94
569,76	3041,50
569,85	3036,76
569,94	3087,15
570,03	3008,28
570,12	3099,58
570,20	3070,88
570,29	3062,52
570,38	3047,83
570,47	3062,97
570,56	2950,43
570,64	3018,68
570,73	3044,67
570,82	3088,05
570,91	3077,66
570,99	3013,48
571,08	3014,16
571,17	3015,97
571,26	3135,06
571,34	3024,78
571,43	3054,16
571,52	3087,83
571,61	3033,14
571,69	3039,47
571,78	3106,36
571,87	3166,92
571,96	3119,01
572,04	3122,18
572,13	3141,84
572,22	3062,74
572,31	3035,40
572,39	3073,14
572,48	3108,39
572,57	3074,50
572,66	3070,88
572,74	3025,23
572,83	3105,46
572,92	3037,43
573,00	3035,63
573,09	3100,71
573,18	3122,40
573,27	3113,59
573,35	3062,97
573,44	3049,86
573,53	3076,98
573,61	3045,34
573,70	3088,05
573,79	3061,16
573,87	3158,34
573,96	3063,87
574,05	3060,94
574,14	3084,21
574,22	3087,60
574,31	3135,51
574,40	3063,65
574,48	3098,45
574,57	3130,31
574,66	3151,10
574,74	3094,38
574,83	3171,44
574,92	3202,85
575,00	3073,82
575,09	3157,88
575,18	3094,61
575,26	3211,67
575,35	3069,75
575,43	3088,96
575,52	3157,88
575,61	3154,72
575,69	3183,65
575,78	3081,27
575,87	3225,90
575,95	3144,10
576,04	3064,10
576,13	3137,32
576,21	3076,30
576,30	3148,39
576,38	3127,60
576,47	3094,16
576,56	3087,15
576,64	3102,97
576,73	3158,34
576,82	3154,27
576,90	3145,45
576,99	3133,25
577,07	3134,38
577,16	3082,18
577,25	3166,02
577,33	3262,29
577,42	3151,56
577,50	3082,86
577,59	3171,44
577,68	3189,29
577,76	3115,85
577,85	3145,68
577,93	3150,88
578,02	3141,16
578,10	3138,67
578,19	3173,93
578,28	3123,76
578,36	3155,85
578,45	3149,30
578,53	3101,84
578,62	3098,68
578,70	3104,10
578,79	3163,31
578,88	3137,77
578,96	3098,68
579,05	3093,70
579,13	3253,02
579,22	3156,53
579,30	3104,33
579,39	3148,17
579,47	3233,81
579,56	3098,45
579,64	3387,26
579,73	3138,22
579,82	3170,54
579,90	3128,05
579,99	3117,66
580,07	3184,32
580,16	3142,74
580,24	3193,59
580,33	3054,61
580,41	3144,78
580,50	3092,12
580,58	3140,71
580,67	3145,68
580,75	3131,90
580,84	3154,49
580,92	3081,27
581,01	3237,88
581,09	3092,80
581,18	3144,55
581,26	3151,78
581,35	3141,84
581,43	3177,77
581,52	3159,24
581,60	3159,92
581,69	3117,43
581,77	3156,75
581,86	3201,05
581,94	3149,07
582,02	3152,01
582,11	3094,61
582,19	3222,97
582,28	3302,74
582,36	3246,24
582,45	3256,64
582,53	3101,61
582,62	3102,97
582,70	3107,04
582,79	3187,26
582,87	3125,57
582,96	3174,15
583,04	3242,40
583,12	3139,35
583,21	3142,74
583,29	3166,02
583,38	3194,49
583,46	3154,72
583,55	3168,96
583,63	3135,51
583,71	3168,73
583,80	3176,19
583,88	3116,30
583,97	3323,30
584,05	3186,36
584,13	3199,92
584,22	3203,53
584,30	3173,02
584,39	3212,34
584,47	3206,70
584,55	3133,93
584,64	3189,07
584,72	3233,36
584,81	3138,22
584,89	3132,80
584,97	3148,17
585,06	3116,08
585,14	3170,09
585,23	3178,22
585,31	3151,56
585,39	3158,79
585,48	3196,07
585,56	3166,92
585,64	3191,10
585,73	3177,09
585,81	3174,61
585,90	3213,47
585,98	3153,14
586,06	3174,15
586,15	3281,72
586,23	3120,37
586,31	3153,82
586,40	3144,55
586,48	3246,92
586,56	3134,15
586,65	3094,61
586,73	3127,38
586,81	3229,97
586,90	3142,74
586,98	3140,48
587,06	3127,15
587,15	3150,65
587,23	3141,39
587,31	3166,47
587,40	3098,00
587,48	3129,41
587,56	3223,42
587,65	3289,18
587,73	3190,88
587,81	3155,85
587,90	3261,16
587,98	3155,40
588,06	3117,66
588,14	3072,91
588,23	3100,03
588,31	3181,61
588,39	3175,74
588,48	3129,86
588,56	3102,29
588,64	3167,37
588,72	3159,69
588,81	3111,78
588,89	3115,85
588,97	3147,71
589,06	3204,44
589,14	3185,68
589,22	3155,40
589,30	3117,66
589,39	3119,69
589,47	3119,47
589,55	3259,35
589,63	3174,15
589,72	3136,87
589,80	3121,50
589,88	3156,98
589,96	3180,71
590,05	3155,85
590,13	3151,78
590,21	3221,16
590,29	3213,93
590,38	3186,36
590,46	3186,81
590,54	3106,58
590,62	3147,26
590,71	3168,96
590,79	3201,27
590,87	3060,03
590,95	3103,42
591,03	3137,09
591,12	3146,81
591,20	3126,92
591,28	3240,14
591,36	3133,93
591,44	3101,84
591,53	3126,92
591,61	3109,30
591,69	3074,27
591,77	3119,69
591,85	3115,62
591,94	3078,11
592,02	3122,86
592,10	3132,35
592,18	3162,18
592,26	3093,03
592,34	3070,20
592,43	3043,08
592,51	3089,64
592,59	3086,47
592,67	3070,65
592,75	3099,13
592,84	3076,98
592,92	3167,83
593,00	3103,42
593,08	3105,00
593,16	3060,71
593,24	3129,18
593,32	3166,92
593,41	3111,10
593,49	3069,07
593,57	3093,93
593,65	3056,19
593,73	3123,76
593,81	3120,60
593,89	3120,82
593,98	3116,75
594,06	3084,66
594,14	3110,65
594,22	3079,69
594,30	3071,56
594,38	3101,39
594,46	3199,01
594,54	3139,13
594,62	3116,08
594,71	3119,92
594,79	3084,89
594,87	3101,61
594,95	3103,65
595,03	3166,70
595,11	3102,29
595,19	3203,08
595,27	3086,25
595,35	3054,16
595,43	3084,66
595,52	3083,99
595,60	3106,13
595,68	3200,59
595,76	3071,56
595,84	3106,13
595,92	3044,44
596,00	3192,91
596,08	3140,93
596,16	3114,27
596,24	3092,12
596,32	3072,91
596,40	3096,64
596,48	3128,28
596,56	3109,97
596,64	3005,12
596,73	3151,56
596,81	3053,48
596,89	3076,08
596,97	3063,20
597,05	3293,70
597,13	3081,95
597,21	3054,61
597,29	3061,84
597,37	3163,53
597,45	3105,00
597,53	3052,80
597,61	3078,79
597,69	3133,48
597,77	3084,66
597,85	3047,38
597,93	3069,07
598,01	3061,16
598,09	3109,75
598,17	3038,79
598,25	3084,89
598,33	3030,20
598,41	3028,62
598,49	3011,67
598,57	3032,24
598,65	3054,83
598,73	3069,98
598,81	3132,57
598,89	3033,37
598,97	3005,80
599,05	3133,70
599,13	3033,37
599,21	3008,28
599,29	3057,32
599,37	3034,72
599,45	2990,88
599,53	3104,10
599,61	2985,01
599,69	3092,57
599,77	3033,37
599,85	2986,81
599,93	3038,11
600,00	3013,48
600,08	3049,41
600,16	2991,11
600,24	2983,42
600,32	3137,77
600,40	3092,80
600,48	3110,65
600,56	3094,83
600,64	3096,42
600,72	3025,91
600,80	3076,30
600,88	3035,40
600,96	3114,04
601,04	3030,43
601,12	2998,11
601,19	2996,98
601,27	3012,35
601,35	3030,65
601,43	2972,80
601,51	3026,36
601,59	2989,53
601,67	2987,27
601,75	2999,24
601,83	3010,54
601,91	2980,49
601,98	2959,92
602,06	3061,84
602,14	3034,72
602,22	3048,96
602,30	3069,75
602,38	3010,09
602,46	2949,08
602,54	3067,49
602,61	3039,47
602,69	3018,23
602,77	2958,34
602,85	2967,38
602,93	2973,48
603,01	2988,85
603,09	3057,77
603,17	2980,71
603,24	3022,07
603,32	2929,64
603,40	2973,26
603,48	3001,50
603,56	2919,47
603,64	2963,09
603,71	2925,35
603,79	2977,77
603,87	2999,02
603,95	3103,42
604,03	2934,39
604,11	2999,70
604,18	2965,80
604,26	2949,08
604,34	2919,25
604,42	2994,05
604,50	2949,53
604,57	2922,41
604,65	2955,40
604,73	2945,69
604,81	2979,81
604,89	2932,80
604,96	2936,87
605,04	2965,12
605,12	2932,13
605,20	2990,20
605,28	3050,09
605,35	2918,12
605,43	2977,10
605,51	2923,76
605,59	2993,37
605,67	3044,44
605,74	2915,86
605,82	2920,83
605,90	2912,47
605,98	2948,85
606,05	2926,25
606,13	2926,93
606,21	2952,24
606,29	2941,17
606,36	2932,80
606,44	2894,61
606,52	2934,16
606,60	2931,90
606,67	2881,73
606,75	2891,68
606,83	2874,50
606,91	2972,35
606,98	2902,30
607,06	2895,97
607,14	2885,57
607,22	2888,96
607,29	2886,48
607,37	2899,81
607,45	2932,13
607,52	2933,93
607,60	2931,67
607,68	2871,79
607,76	2902,07
607,83	2850,09
607,91	2888,06
607,99	2941,39
608,06	2881,05
608,14	2867,27
608,22	2891,22
608,30	2956,98
608,37	2839,93
608,45	2809,19
608,53	2897,32
608,60	2881,73
608,68	2856,20
608,76	2877,66
608,83	2891,90
608,91	2807,61
608,99	2905,69
609,06	2873,60
609,14	2908,17
609,22	2874,73
609,29	2823,88
609,37	2803,99
609,45	2898,68
609,52	2860,04
609,60	2833,60
609,68	2804,45
609,75	2829,30
609,83	2790,89
609,91	2950,20
609,98	2810,32
610,06	2804,45
610,13	2878,79
610,21	2850,77
610,29	2851,68
610,36	2779,36
610,44	2827,50
610,52	2839,02
610,59	2793,15
610,67	2787,50
610,74	2787,50
610,82	2795,41
610,90	2843,77
610,97	2785,69
611,05	2813,26
611,13	2822,75
611,20	2886,93
611,28	2744,11
611,35	2795,63
611,43	2766,93
611,51	2800,15
611,58	2798,57
611,66	2866,82
611,73	2762,19
611,81	2821,17
611,88	2775,75
611,96	2825,01
612,04	2741,40
612,11	2762,19
612,19	2824,33
612,26	2750,89
612,34	2776,88
612,41	2737,56
612,49	2732,81
612,57	2685,58
612,64	2731,91
612,72	2808,29
612,79	2859,59
612,87	2691,00
612,94	2678,12
613,02	2730,32
613,09	2713,15
613,17	2720,38
613,24	2694,39
613,32	2764,45
613,40	2707,73
613,47	2724,45
613,55	2676,99
613,62	2733,04
613,70	2771,23
613,77	2688,97
613,85	2774,84
613,92	2676,31
614,00	2657,78
614,07	2660,04
614,15	2634,51
614,22	2620,72
614,30	2683,32
614,37	2641,06
614,45	2640,83
614,52	2624,56
614,60	2665,47
614,67	2678,35
614,75	2605,58
614,82	2692,36
614,90	2606,71
614,97	2591,57
615,05	2711,79
615,12	2670,89
615,20	2588,18
615,27	2642,19
615,34	2599,71
615,42	2549,09
615,49	2607,39
615,57	2544,79
615,64	2545,92
615,72	2557,67
615,79	2560,16
615,87	2579,14
615,94	2635,18
616,02	2574,85
616,09	2595,19
616,16	2588,41
616,24	2558,12
616,31	2474,51
616,39	2595,41
616,46	2581,85
616,54	2561,51
616,61	2628,41
616,68	2484,91
616,76	2512,70
616,83	2502,76
616,91	2462,31
616,98	2494,62
617,06	2540,50
617,13	2451,01
617,20	2461,18
617,28	2464,79
617,35	2459,37
617,43	2507,05
617,50	2415,30
617,57	2462,53
>>>>>End Processed Spectral Data<<<<<
