SpectraSuite Datei
++++++++++++++++++++++++++++++++++++
Datum: Thu Jan 01 07:43:17 CET 2004
Benutzer: H. Stützler
Dark-Spektrum vorhanden: Nein
Referenz-Spektrum vorhanden: Nein
Zahl der probierten Teilspektren: 1
Spektrometer: USB2+H04734
Integrationszeit (usec): 500000 (USB2+H04734)
Spektren Durchschnitt berechnet: 20 (USB2+H04734)
Boxcar Glättung: 0 (USB2+H04734)
Dunkelstromkorrektur: Nein (USB2+H04734)
Puls/Lampe aktiviert: Nein (USB2+H04734)
Correct for Detector Non-linearity: Nein (USB2+H04734)
Streulichtkorrektur: Nein (USB2+H04734)
Anzahl Pixel in verarbeitetem Spektrum: 2048
>>>>>Begin Processed Spectral Data<<<<<
418,45	1460,30
418,57	1460,30
418,69	1460,30
418,80	1383,13
418,92	1362,68
419,04	1450,36
419,16	1396,80
419,28	1368,55
419,40	1368,21
419,52	1376,24
419,64	1365,61
419,75	1372,17
419,87	1386,29
419,99	1375,44
420,11	1392,62
420,23	1408,21
420,35	1412,17
420,47	1423,13
420,58	1423,24
420,70	1434,88
420,82	1441,66
420,94	1478,49
421,06	1509,34
421,18	1477,25
421,29	1492,62
421,41	1514,99
421,53	1532,62
421,65	1569,22
421,77	1582,78
421,89	1574,08
422,00	1602,22
422,12	1581,88
422,24	1569,11
422,36	1601,20
422,48	1607,30
422,59	1587,53
422,71	1616,00
422,83	1584,70
422,95	1584,37
423,07	1611,82
423,18	1637,02
423,30	1615,10
423,42	1593,52
423,54	1610,47
423,66	1607,53
423,77	1611,26
423,89	1610,24
424,01	1603,80
424,13	1599,05
424,25	1597,02
424,36	1602,56
424,48	1609,79
424,60	1597,36
424,72	1633,40
424,84	1599,51
424,95	1612,84
425,07	1593,86
425,19	1604,59
425,31	1602,22
425,42	1579,85
425,54	1607,08
425,66	1598,94
425,78	1585,50
425,89	1597,13
426,01	1596,79
426,13	1593,97
426,25	1601,20
426,36	1583,91
426,48	1613,52
426,60	1609,90
426,72	1591,26
426,83	1603,46
426,95	1589,68
427,07	1589,68
427,19	1639,17
427,30	1591,37
427,42	1583,57
427,54	1571,15
427,66	1601,20
427,77	1582,90
427,89	1605,38
428,01	1597,02
428,12	1611,60
428,24	1581,65
428,36	1585,04
428,48	1566,74
428,59	1572,50
428,71	1596,46
428,83	1582,78
428,94	1597,70
429,06	1585,16
429,18	1615,55
429,30	1593,07
429,41	1606,29
429,53	1629,56
429,65	1618,71
429,76	1604,48
429,88	1606,85
430,00	1613,63
430,11	1625,38
430,23	1603,12
430,35	1636,45
430,47	1584,37
430,58	1587,30
430,70	1616,23
430,82	1596,91
430,93	1677,81
431,05	1604,25
431,17	1608,66
431,28	1616,00
431,40	1590,35
431,52	1623,69
431,63	1586,40
431,75	1598,04
431,87	1589,34
431,98	1610,35
432,10	1598,60
432,22	1606,17
432,33	1629,00
432,45	1602,90
432,56	1609,79
432,68	1621,77
432,80	1583,12
432,91	1606,74
433,03	1607,75
433,15	1615,44
433,26	1603,69
433,38	1604,36
433,50	1609,22
433,61	1618,49
433,73	1643,12
433,84	1597,36
433,96	1604,93
434,08	1601,88
434,19	1600,64
434,31	1588,77
434,43	1594,65
434,54	1602,56
434,66	1584,93
434,77	1581,54
434,89	1618,26
435,01	1604,48
435,12	1594,20
435,24	1603,01
435,35	1606,62
435,47	1648,77
435,59	1625,38
435,70	1589,22
435,82	1604,93
435,93	1637,81
436,05	1606,74
436,17	1603,80
436,28	1621,65
436,40	1612,50
436,51	1587,42
436,63	1595,44
436,74	1621,77
436,86	1655,66
436,98	1720,07
437,09	1601,31
437,21	1614,99
437,32	1616,91
437,44	1611,48
437,55	1592,73
437,67	1764,02
437,79	1663,35
437,90	1610,69
438,02	1593,74
438,13	2084,01
438,25	1644,36
438,36	1622,33
438,48	1609,45
438,59	1627,87
438,71	1620,64
438,83	1606,06
438,94	1602,78
439,06	1632,05
439,17	1633,63
439,29	1612,84
439,40	1602,67
439,52	1599,05
439,63	1630,58
439,75	1596,57
439,86	1596,46
439,98	1605,61
440,09	1611,82
440,21	1597,59
440,32	1612,84
440,44	1595,44
440,55	1622,90
440,67	1607,08
440,78	1647,41
440,90	1611,14
441,01	1630,92
441,13	1611,48
441,24	1615,55
441,36	1632,84
441,47	1600,30
441,59	1630,47
441,70	1601,88
441,82	1646,17
441,93	1622,67
442,05	1610,01
442,16	1612,16
442,28	1593,74
442,39	1607,64
442,51	1649,90
442,62	1618,71
442,74	1639,28
442,85	1620,41
442,97	1663,01
443,08	1619,28
443,20	1630,24
443,31	1620,64
443,43	1616,79
443,54	1636,45
443,66	1602,90
443,77	1610,13
443,88	1595,10
444,00	1640,30
444,11	1630,24
444,23	1655,78
444,34	1612,73
444,46	1617,58
444,57	1653,97
444,69	1634,76
444,80	1626,28
444,91	1682,89
445,03	1609,11
445,14	1632,61
445,26	1602,10
445,37	1611,60
445,49	1648,43
445,60	1643,23
445,71	1670,46
445,83	1640,86
445,94	1603,35
446,06	1650,92
446,17	1621,43
446,29	1617,36
446,40	1624,25
446,51	1657,24
446,63	1619,28
446,74	1614,87
446,86	1630,24
446,97	1648,66
447,08	1609,90
447,20	1628,43
447,31	1605,72
447,43	1626,51
447,54	1639,73
447,65	1641,99
447,77	1623,35
447,88	1624,03
448,00	1643,80
448,11	1607,64
448,22	1624,25
448,34	1632,84
448,45	1619,39
448,56	1621,09
448,68	1635,10
448,79	1651,14
448,90	1640,41
449,02	1629,56
449,13	1619,39
449,25	1641,09
449,36	1623,69
449,47	1646,85
449,59	1668,77
449,70	1628,54
449,81	1613,74
449,93	1631,26
450,04	1622,90
450,15	1642,10
450,27	1622,56
450,38	1637,25
450,49	1632,50
450,61	1670,46
450,72	1623,91
450,83	1650,13
450,95	1639,17
451,06	1632,39
451,17	1669,22
451,29	1644,82
451,40	1615,55
451,51	1623,80
451,63	1606,40
451,74	1662,22
451,85	1633,40
451,97	1664,48
452,08	1644,48
452,19	1635,66
452,31	1668,88
452,42	1640,07
452,53	1671,03
452,65	1675,89
452,76	1626,28
452,87	1618,60
452,98	1615,21
453,10	1644,93
453,21	1637,70
453,32	1632,39
453,44	1624,14
453,55	1612,39
453,66	1696,11
453,77	1652,39
453,89	1657,36
454,00	1684,14
454,11	1639,17
454,23	1639,73
454,34	1656,79
454,45	1630,35
454,56	1650,35
454,68	1680,52
454,79	1655,44
454,90	1657,92
455,01	1629,22
455,13	1635,10
455,24	1658,49
455,35	1639,62
455,46	1636,23
455,58	1643,01
455,69	1680,52
455,80	1677,58
455,91	1615,21
456,03	1633,06
456,14	1671,03
456,25	1640,86
456,36	1619,39
456,48	1650,01
456,59	1680,86
456,70	1634,31
456,81	1670,80
456,92	1689,79
457,04	1673,40
457,15	1690,35
457,26	1640,97
457,37	1648,88
457,49	1647,30
457,60	1640,30
457,71	1664,36
457,82	1670,35
457,93	1661,09
458,05	1684,81
458,16	1640,63
458,27	1639,73
458,38	1653,40
458,49	1664,25
458,61	1649,34
458,72	1661,54
458,83	1652,16
458,94	1672,95
459,05	1649,45
459,17	1748,54
459,28	1648,77
459,39	1637,25
459,50	1645,72
459,61	1661,76
459,72	1643,69
459,84	1654,31
459,95	1664,81
460,06	1758,15
460,17	1641,65
460,28	1656,91
460,39	1654,65
460,51	1669,67
460,62	1663,35
460,73	1646,96
460,84	1630,35
460,95	1690,13
461,06	1690,69
461,18	1702,44
461,29	1683,23
461,40	1650,24
461,51	1666,96
461,62	1718,03
461,73	1662,67
461,84	1678,94
461,96	1690,46
462,07	1681,09
462,18	1662,56
462,29	1673,74
462,40	1673,06
462,51	1667,75
462,62	1713,40
462,73	1709,79
462,85	1684,81
462,96	1679,05
463,07	1701,20
463,18	1729,11
463,29	1683,35
463,40	1663,35
463,51	1674,08
463,62	1664,02
463,73	1683,57
463,85	1658,37
463,96	1685,83
464,07	1683,68
464,18	1667,87
464,29	1677,47
464,40	1697,92
464,51	1697,70
464,62	1683,23
464,73	1667,53
464,84	1687,64
464,95	1683,68
465,06	1685,72
465,18	1668,77
465,29	1697,36
465,40	1667,87
465,51	1679,96
465,62	1706,40
465,73	1678,60
465,84	1697,36
465,95	1689,11
466,06	1685,04
466,17	1690,92
466,28	1691,14
466,39	1720,75
466,50	1683,80
466,61	1667,98
466,72	1695,77
466,83	1674,31
466,95	1663,57
467,06	1678,94
467,17	1691,59
467,28	1684,14
467,39	1694,19
467,50	1685,27
467,61	1671,82
467,72	1682,22
467,83	1689,33
467,94	1705,72
468,05	1681,88
468,16	1700,75
468,27	1689,67
468,38	1668,54
468,49	1718,60
468,60	1692,16
468,71	1726,40
468,82	1706,85
468,93	1711,82
469,04	1726,96
469,15	1705,72
469,26	1694,87
469,37	1697,70
469,48	1727,07
469,59	1698,60
469,70	1691,82
469,81	1710,24
469,92	1694,64
470,03	1713,40
470,14	1685,38
470,25	1723,23
470,36	1705,49
470,47	1692,95
470,58	1684,25
470,69	1714,76
470,80	1724,25
470,91	1691,37
471,02	1692,50
471,13	1718,94
471,24	1728,66
471,35	1692,72
471,46	1738,94
471,56	1735,10
471,67	1728,43
471,78	1736,45
471,89	1692,05
472,00	1698,15
472,11	1717,92
472,22	1734,87
472,33	1708,77
472,44	1713,63
472,55	1696,68
472,66	1722,21
472,77	1692,72
472,88	1772,61
472,99	1733,85
473,10	1679,39
473,21	1699,16
473,32	1710,01
473,42	1713,63
473,53	1696,79
473,64	1701,88
473,75	1711,82
473,86	1710,12
473,97	1711,93
474,08	1717,58
474,19	1740,18
474,30	1755,32
474,41	1713,97
474,52	1693,06
474,62	1706,06
474,73	1709,33
474,84	1777,81
474,95	1740,52
475,06	1731,14
475,17	1712,38
475,28	1700,63
475,39	1718,26
475,50	1731,93
475,60	1705,27
475,71	1708,88
475,82	1728,43
475,93	1721,08
476,04	1760,18
476,15	1728,54
476,26	1739,05
476,37	1701,65
476,47	1724,14
476,58	1741,20
476,69	1719,16
476,80	1711,93
476,91	1731,14
477,02	1730,12
477,13	1739,62
477,23	1710,80
477,34	1730,12
477,45	1735,21
477,56	1743,57
477,67	1729,45
477,78	1728,20
477,89	1735,55
477,99	1741,31
478,10	1759,84
478,21	1749,33
478,32	1754,08
478,43	1736,00
478,54	1799,61
478,64	1741,54
478,75	1760,41
478,86	1759,50
478,97	1751,25
479,08	1746,62
479,18	1765,38
479,29	1756,45
479,40	1753,06
479,51	1736,68
479,62	1750,24
479,72	1750,91
479,83	1752,16
479,94	1788,99
480,05	1778,94
480,16	1748,88
480,26	1769,67
480,37	1751,14
480,48	1784,36
480,59	1751,59
480,70	1774,87
480,80	1775,89
480,91	1763,34
481,02	1767,19
481,13	1778,60
481,24	1799,16
481,34	1757,81
481,45	1815,55
481,56	1777,69
481,67	1778,37
481,77	1782,33
481,88	1804,47
481,99	1780,07
482,10	1796,90
482,20	1903,45
482,31	1779,95
482,42	1803,79
482,53	1790,12
482,63	1823,79
482,74	1801,76
482,85	1786,17
482,96	1792,04
483,06	1793,17
483,17	1805,38
483,28	1794,19
483,39	1810,46
483,49	1817,24
483,60	1867,97
483,71	1794,53
483,81	1827,41
483,92	1800,18
484,03	1811,03
484,14	1810,01
484,24	1795,21
484,35	1812,72
484,46	1825,49
484,57	1814,64
484,67	1827,75
484,78	1816,90
484,89	1880,29
484,99	1828,20
485,10	1824,36
485,21	1825,04
485,31	1836,00
485,42	1837,80
485,53	1818,82
485,63	1824,47
485,74	1872,27
485,85	1890,91
485,96	2106,39
486,06	1838,03
486,17	1832,61
486,28	1842,21
486,38	1799,27
486,49	1848,88
486,60	1825,71
486,70	1807,41
486,81	1827,75
486,92	1843,91
487,02	1840,97
487,13	1817,35
487,24	1848,99
487,34	1851,02
487,45	1892,04
487,56	1853,96
487,66	1840,63
487,77	1876,79
487,87	1868,99
487,98	1851,48
488,09	1852,04
488,19	1845,60
488,30	1935,09
488,41	1859,27
488,51	1859,95
488,62	1853,85
488,73	1857,24
488,83	1866,84
488,94	1881,98
489,04	1915,32
489,15	1879,05
489,26	1867,75
489,36	1899,05
489,47	1876,90
489,58	1880,29
489,68	1905,03
489,79	1868,88
489,89	1896,67
490,00	1879,61
490,11	1908,76
490,21	1904,24
490,32	1891,25
490,42	1888,99
490,53	1879,95
490,64	1894,75
490,74	1874,75
490,85	1893,28
490,95	1922,32
491,06	1901,19
491,16	1890,12
491,27	1919,38
491,38	1894,41
491,48	1958,59
491,59	1946,39
491,69	1932,49
491,80	1916,22
491,90	1952,38
492,01	1898,93
492,12	1938,71
492,22	1903,45
492,33	1946,84
492,43	1909,22
492,54	1905,37
492,64	1919,16
492,75	1949,33
492,86	1951,47
492,96	1931,25
493,07	1924,36
493,17	1948,08
493,28	1955,32
493,38	1941,53
493,49	1953,39
493,59	1955,09
493,70	1969,67
493,80	1938,48
493,91	1916,22
494,01	1946,73
494,12	1947,18
494,22	1967,29
494,33	1998,82
494,43	1986,28
494,54	2000,40
494,64	1972,49
494,75	1956,45
494,86	2006,95
494,96	1958,93
495,07	1976,11
495,17	2017,80
495,28	1994,18
495,38	1980,29
495,49	2014,30
495,59	2031,13
495,69	2021,19
495,80	2056,67
495,90	2033,96
496,01	2015,31
496,11	2017,35
496,22	2020,06
496,32	1978,93
496,43	2038,36
496,53	2026,95
496,64	2031,58
496,74	2033,28
496,85	2037,35
496,95	2049,32
497,06	2037,35
497,16	2044,35
497,27	2052,49
497,37	2063,79
497,48	2018,70
497,58	2025,82
497,68	2027,97
497,79	2040,85
497,89	2042,77
498,00	2047,06
498,10	2024,58
498,21	2064,58
498,31	2057,80
498,42	2045,37
498,52	2076,22
498,62	2034,41
498,73	2050,79
498,83	2064,58
498,94	2039,83
499,04	2072,94
499,15	2030,79
499,25	2057,23
499,35	2083,11
499,46	2120,62
499,56	2117,91
499,67	2095,09
499,77	2060,62
499,87	2090,68
499,98	2085,93
500,08	2073,62
500,19	2079,15
500,29	2087,29
500,39	2108,76
500,50	2119,15
500,60	2121,64
500,71	2113,96
500,81	2085,37
500,91	2096,33
501,02	2117,23
501,12	2121,07
501,22	2110,90
501,33	2130,00
501,43	2133,62
501,54	2118,36
501,64	2117,12
501,74	2137,01
501,85	2154,97
501,95	2133,50
502,05	2136,10
502,16	2155,20
502,26	2198,93
502,37	2168,98
502,47	2165,93
502,57	2170,56
502,68	2161,53
502,78	2158,25
502,88	2201,52
502,99	2182,77
503,09	2215,20
503,19	2181,30
503,30	2172,94
503,40	2189,43
503,50	2187,85
503,61	2206,27
503,71	2203,78
503,81	2196,55
503,92	2198,70
504,02	2240,85
504,12	2306,61
504,23	2261,18
504,33	2224,24
504,43	2248,42
504,54	2250,11
504,64	2249,43
504,74	2316,44
504,84	2242,77
504,95	2236,21
505,05	2225,03
505,15	2302,54
505,26	2241,07
505,36	2266,61
505,46	2287,28
505,56	2305,25
505,67	2321,52
505,77	2310,33
505,87	2295,42
505,98	2317,34
506,08	2309,66
506,18	2323,78
506,28	2318,92
506,39	2310,67
506,49	2294,85
506,59	2305,14
506,70	2296,89
506,80	2343,44
506,90	2408,75
507,00	2353,05
507,11	2410,56
507,21	2413,16
507,31	2404,23
507,41	2361,97
507,52	2375,76
507,62	2384,68
507,72	2439,82
507,82	2422,87
507,93	2420,95
508,03	2455,08
508,13	2447,05
508,23	2428,18
508,34	2427,96
508,44	2409,65
508,54	2445,47
508,64	2432,25
508,74	2408,52
508,85	2446,49
508,95	2469,77
509,05	2461,29
509,15	2490,78
509,26	2502,53
509,36	2501,18
509,46	2532,02
509,56	2512,93
509,66	2526,60
509,77	2513,72
509,87	2498,58
509,97	2524,68
510,07	2527,62
510,17	2524,11
510,28	2593,94
510,38	2559,48
510,48	2558,69
510,58	2578,80
510,68	2603,77
510,78	2614,28
510,89	2613,15
510,99	2573,27
511,09	2618,24
511,19	2614,96
511,29	2610,55
511,39	2657,11
511,50	2636,09
511,60	2577,56
511,70	2643,89
511,80	2626,48
511,90	2675,64
512,00	2642,76
512,11	2685,01
512,21	2694,17
512,31	2695,86
512,41	2778,68
512,51	2750,78
512,61	2813,37
512,71	2778,23
512,82	2786,48
512,92	2741,06
513,02	2800,83
513,12	2745,80
513,22	2757,67
513,32	2777,22
513,42	2790,89
513,53	2814,39
513,63	2791,57
513,73	2822,19
513,83	2773,03
513,93	2824,67
514,03	2818,57
514,13	2872,69
514,23	2855,41
514,33	2870,55
514,44	2861,17
514,54	2893,94
514,64	2966,25
514,74	2940,71
514,84	2935,63
514,94	2976,19
515,04	2956,53
515,14	2972,24
515,24	2980,49
515,34	2987,27
515,44	2985,12
515,55	3005,80
515,65	3061,16
515,75	3024,44
515,85	3063,87
515,95	3126,58
516,05	3177,88
516,15	3165,34
516,25	3152,35
516,35	3143,08
516,45	3143,76
516,55	3134,15
516,65	3164,44
516,75	3277,20
516,85	3304,88
516,95	3362,51
517,05	3356,41
517,16	3303,98
517,26	3388,05
517,36	3318,44
517,46	3271,67
517,56	3286,81
517,66	3294,60
517,76	3292,79
517,86	3324,66
517,96	3386,69
518,06	3365,34
518,16	3400,59
518,26	3431,10
518,36	3445,22
518,46	3450,08
518,56	3476,97
518,66	3498,89
518,76	3556,06
518,86	3597,76
518,96	3601,83
519,06	3689,85
519,16	3723,63
519,26	3800,35
519,36	3834,81
519,46	3887,58
519,56	3942,83
519,66	4008,03
519,76	3979,78
519,86	4037,63
519,96	4146,67
520,06	4242,26
520,16	4363,16
520,26	4469,60
520,36	4565,64
520,46	4670,16
520,56	4763,49
520,66	4853,77
520,76	4923,83
520,86	4990,49
520,96	5137,61
521,06	5174,78
521,16	5171,50
521,26	5270,82
521,35	5305,85
521,45	5309,46
521,55	5433,98
521,65	5686,97
521,75	5994,76
521,85	6325,26
521,95	6650,90
522,05	7030,44
522,15	7359,24
522,25	7898,10
522,35	7716,97
522,45	7662,40
522,55	7912,67
522,65	7935,16
522,75	7893,80
522,85	7832,90
522,94	7621,83
523,04	7429,75
523,14	7178,91
523,24	6910,55
523,34	6590,00
523,44	6270,46
523,54	5945,95
523,64	5799,96
523,74	5769,68
523,84	5694,77
523,94	5720,87
524,03	5696,46
524,13	5753,41
524,23	5775,33
524,33	5677,82
524,43	5638,27
524,53	5724,48
524,63	5746,63
524,73	5802,67
524,83	5861,31
524,92	5957,92
525,02	6026,28
525,12	6203,57
525,22	6218,71
525,32	6285,82
525,42	6320,96
525,52	6302,43
525,61	6439,49
525,71	6574,29
525,81	6695,98
525,91	6833,72
526,01	6894,28
526,11	6976,31
526,21	7132,92
526,30	7222,97
526,40	7410,31
526,50	7503,87
526,60	7703,64
526,70	7902,84
526,80	8230,97
526,89	8444,41
526,99	8629,60
527,09	8956,83
527,19	9262,24
527,29	9810,14
527,39	10428,43
527,48	11203,21
527,58	12055,05
527,68	12987,91
527,78	13955,00
527,88	14794,64
527,97	15378,80
528,07	15836,42
528,17	16372,22
528,27	17157,85
528,37	17848,23
528,46	18664,59
528,56	19562,99
528,66	20382,85
528,76	21455,14
528,86	22542,12
528,95	23420,63
529,05	24580,82
529,15	26249,25
529,25	28189,54
529,35	30554,68
529,44	33270,42
529,54	36378,37
529,64	39785,73
529,74	43861,56
529,83	48204,83
529,93	51597,97
530,03	54340,04
530,13	56304,85
530,22	58046,04
530,32	60048,03
530,42	61873,85
530,52	64093,46
530,61	65535,00
530,71	65535,00
530,81	65535,00
530,91	65535,00
531,00	65535,00
531,10	65535,00
531,20	65535,00
531,30	65535,00
531,39	65535,00
531,49	65535,00
531,59	65535,00
531,69	65535,00
531,78	65535,00
531,88	65535,00
531,98	65535,00
532,07	65535,00
532,17	65535,00
532,27	65535,00
532,37	65535,00
532,46	65535,00
532,56	65535,00
532,66	65535,00
532,75	65535,00
532,85	65535,00
532,95	65535,00
533,04	65535,00
533,14	62370,11
533,24	58803,20
533,34	54850,42
533,43	50515,62
533,53	45062,32
533,63	41181,86
533,72	37415,17
533,82	34129,95
533,92	31682,78
534,01	29287,59
534,11	27585,15
534,21	25835,37
534,30	24132,47
534,40	22461,67
534,50	20888,60
534,59	19824,56
534,69	19084,02
534,79	18153,53
534,88	17230,06
534,98	16328,61
535,08	15508,41
535,17	14787,63
535,27	14273,97
535,36	13571,06
535,46	13034,01
535,56	12693,34
535,65	12074,82
535,75	11686,59
535,85	11121,18
535,94	10761,75
536,04	10618,36
536,14	10418,60
536,23	10186,06
536,33	9756,58
536,42	9504,50
536,52	9353,54
536,62	9128,35
536,71	9044,51
536,81	8961,35
536,90	8883,50
537,00	8773,33
537,10	8608,36
537,19	8460,91
537,29	8393,23
537,38	8253,00
537,48	8149,05
537,58	8093,23
537,67	8034,25
537,77	7984,54
537,86	7986,91
537,96	7906,57
538,06	7904,76
538,15	7768,84
538,25	7726,58
538,34	7639,80
538,44	7403,42
538,53	7275,97
538,63	7227,72
538,73	7084,67
538,82	6939,93
538,92	6810,67
539,01	6755,19
539,11	6610,67
539,20	6560,84
539,30	6443,45
539,39	6341,42
539,49	6400,74
539,59	6396,33
539,68	6591,92
539,78	6663,78
539,87	6671,12
539,97	6709,32
540,06	6655,42
540,16	6570,00
540,25	6444,01
540,35	6327,97
540,44	5992,95
540,54	5846,06
540,63	5553,19
540,73	5445,73
540,82	5297,15
540,92	5193,08
541,01	5164,95
541,11	5110,71
541,20	4995,12
541,30	4919,42
541,39	4820,78
541,49	4656,37
541,58	4611,86
541,68	4545,64
541,77	4371,64
541,87	4359,32
541,96	4343,28
542,06	4350,96
542,15	4331,41
542,25	4283,73
542,34	4217,29
542,44	4166,44
542,53	4153,00
542,63	4144,75
542,72	4086,79
542,82	4089,72
542,91	4124,75
543,01	4101,25
543,10	4088,14
543,20	4008,93
543,29	3987,35
543,38	3926,11
543,48	3887,58
543,57	3841,03
543,67	3758,21
543,76	3737,08
543,86	3699,68
543,95	3658,43
544,05	3649,51
544,14	3618,21
544,23	3561,04
544,33	3515,39
544,42	3541,94
544,52	3514,37
544,61	3509,51
544,71	3512,68
544,80	3504,09
544,89	3518,21
544,99	3480,02
545,08	3470,08
545,18	3391,55
545,27	3409,29
545,36	3358,56
545,46	3315,62
545,55	3312,91
545,65	3322,74
545,74	3302,85
545,84	3319,35
545,93	3304,43
546,02	3282,63
546,12	3279,57
546,21	3205,23
546,30	3175,06
546,40	3149,07
546,49	3080,03
546,59	3117,88
546,68	3076,87
546,77	3092,69
546,87	3072,46
546,96	3088,17
547,05	3069,64
547,15	3067,83
547,24	3039,02
547,34	2969,87
547,43	3008,40
547,52	3008,85
547,62	2950,66
547,71	2938,23
547,80	2907,83
547,90	2870,66
547,99	2919,25
548,08	2881,28
548,18	2842,19
548,27	2843,43
548,36	2813,26
548,46	2767,95
548,55	2763,32
548,64	2763,88
548,74	2752,70
548,83	2745,13
548,92	2769,87
549,02	2738,23
549,11	2778,91
549,20	2741,17
549,30	2706,48
549,39	2695,75
549,48	2710,21
549,58	2680,38
549,67	2709,76
549,76	2674,17
549,85	2642,42
549,95	2645,13
550,04	2659,37
550,13	2601,40
550,23	2603,66
550,32	2560,61
550,41	2547,73
550,50	2550,10
550,60	2583,10
550,69	2518,46
550,78	2504,79
550,88	2531,91
550,97	2544,23
551,06	2554,40
551,15	2559,48
551,25	2602,42
551,34	2537,45
551,43	2536,77
551,52	2601,29
551,62	2634,62
551,71	2688,52
551,80	2746,71
551,89	2835,41
551,99	2965,68
552,08	3179,13
552,17	3414,94
552,26	3688,15
552,36	3901,93
552,45	4059,10
552,54	4090,63
552,63	4064,75
552,73	3941,93
552,82	3712,44
552,91	3398,10
553,00	3190,88
553,10	2908,74
553,19	2798,23
553,28	2634,96
553,37	2660,72
553,46	2611,91
553,56	2632,02
553,65	2581,18
553,74	2566,60
553,83	2553,61
553,92	2523,32
554,02	2525,02
554,11	2493,72
554,20	2445,02
554,29	2426,15
554,38	2357,45
554,48	2322,65
554,57	2300,73
554,66	2290,00
554,75	2278,25
554,84	2268,75
554,94	2261,18
555,03	2233,61
555,12	2202,99
555,21	2160,40
555,30	2245,14
555,39	2159,83
555,49	2149,21
555,58	2129,32
555,67	2168,76
555,76	2163,67
555,85	2098,36
555,94	2094,41
556,03	2085,59
556,13	2112,37
556,22	2090,45
556,31	2116,22
556,40	2098,59
556,49	2123,11
556,58	2099,83
556,67	2094,75
556,77	2098,25
556,86	2135,31
556,95	2121,30
557,04	2142,66
557,13	2136,44
557,22	2129,32
557,31	2077,69
557,40	2051,70
557,50	2081,87
557,59	1997,35
557,68	2023,11
557,77	2040,06
557,86	2018,59
557,95	2022,21
558,04	2011,47
558,13	2020,40
558,22	2033,05
558,31	2007,40
558,41	1972,38
558,50	2026,95
558,59	2018,82
558,68	1999,83
558,77	2003,90
558,86	1941,64
558,95	1951,81
559,04	1969,33
559,13	2000,17
559,22	1952,49
559,31	1971,02
559,40	1947,86
559,49	1930,57
559,59	1946,28
559,68	1923,57
559,77	1954,41
559,86	1962,66
559,95	1907,18
560,04	1898,93
560,13	1894,64
560,22	1946,62
560,31	1882,21
560,40	1880,85
560,49	1851,93
560,58	1850,69
560,67	1837,92
560,76	1849,89
560,85	1830,69
560,94	1861,31
561,03	1833,51
561,12	1917,46
561,21	1906,62
561,30	1853,06
561,39	1835,77
561,48	1832,38
561,57	1786,62
561,66	1824,02
561,75	1848,20
561,84	1792,61
561,93	1798,71
562,02	1781,42
562,11	1755,89
562,20	1758,15
562,29	1767,75
562,38	1750,01
562,47	1769,67
562,56	1762,78
562,65	1745,15
562,74	1759,61
562,83	1829,33
562,92	1743,80
563,01	1777,47
563,10	1743,23
563,19	1742,33
563,28	1824,36
563,37	1761,76
563,46	1721,99
563,55	1709,45
563,64	1805,83
563,73	1729,79
563,82	1724,59
563,91	1767,41
564,00	1708,43
564,09	1693,74
564,18	1730,46
564,27	1692,72
564,35	1718,60
564,44	1721,99
564,53	1741,99
564,62	1736,23
564,71	1711,25
564,80	1705,38
564,89	1732,61
564,98	2482,76
565,07	1763,12
565,16	1689,67
565,25	1823,68
565,34	1708,77
565,43	1706,40
565,51	1702,55
565,60	1743,57
565,69	1698,94
565,78	1748,09
565,87	1672,05
565,96	1683,91
566,05	1718,94
566,14	1750,24
566,23	1742,10
566,32	1753,51
566,40	1767,86
566,49	1775,77
566,58	1740,18
566,67	1740,75
566,76	1748,43
566,85	1730,01
566,94	1737,36
567,03	1760,18
567,11	1715,21
567,20	1713,63
567,29	1744,47
567,38	1717,47
567,47	1677,24
567,56	1696,00
567,65	1706,96
567,73	1663,57
567,82	1666,40
567,91	1687,75
568,00	1689,22
568,09	1728,43
568,18	1683,23
568,27	1694,98
568,35	1683,23
568,44	1684,14
568,53	1681,76
568,62	1674,87
568,71	1668,09
568,80	1672,27
568,88	1691,93
568,97	1709,56
569,06	1663,23
569,15	1669,56
569,24	1696,90
569,32	1686,96
569,41	1672,16
569,50	1646,62
569,59	1657,58
569,68	1644,14
569,76	1688,32
569,85	1682,22
569,94	1698,15
570,03	1656,00
570,12	1689,33
570,20	1681,65
570,29	1689,56
570,38	1677,13
570,47	1681,76
570,56	1648,88
570,64	1653,40
570,73	1663,12
570,82	1711,82
570,91	1696,45
570,99	1644,70
571,08	1626,85
571,17	1657,36
571,26	1688,54
571,34	1651,03
571,43	1669,33
571,52	1679,62
571,61	1655,21
571,69	1659,28
571,78	1684,81
571,87	1691,71
571,96	1671,03
572,04	1679,28
572,13	1664,14
572,22	1641,43
572,31	1627,41
572,39	1632,84
572,48	1649,79
572,57	1635,21
572,66	1638,94
572,74	1634,19
572,83	1651,37
572,92	1649,56
573,00	1625,95
573,09	1676,68
573,18	1674,53
573,27	1665,27
573,35	1648,88
573,44	1654,31
573,53	1645,38
573,61	1644,70
573,70	1656,57
573,79	1641,76
573,87	1686,06
573,96	1652,16
574,05	1663,12
574,14	1657,36
574,22	1654,76
574,31	1667,53
574,40	1646,51
574,48	1679,39
574,57	1682,67
574,66	1678,26
574,74	1694,08
574,83	1725,27
574,92	1751,48
575,00	1713,74
575,09	1756,56
575,18	1743,91
575,26	1810,23
575,35	1781,99
575,43	1769,33
575,52	1790,46
575,61	1776,22
575,69	1771,25
575,78	1738,60
575,87	1775,55
575,95	1713,63
576,04	1681,09
576,13	1701,54
576,21	1681,88
576,30	1676,79
576,38	1682,33
576,47	1645,04
576,56	1651,48
576,64	1643,69
576,73	1673,29
576,82	1674,65
576,90	1672,39
576,99	1659,28
577,07	1645,49
577,16	1637,02
577,25	1661,09
577,33	1710,80
577,42	1647,08
577,50	1620,41
577,59	1653,18
577,68	1671,26
577,76	1639,28
577,85	1636,12
577,93	1657,81
578,02	1661,54
578,10	1645,95
578,19	1636,68
578,28	1631,03
578,36	1634,99
578,45	1627,98
578,53	1623,12
578,62	1623,80
578,70	1616,91
578,79	1637,81
578,88	1633,63
578,96	1617,25
579,05	1625,83
579,13	1667,98
579,22	1647,30
579,30	1615,44
579,39	1642,56
579,47	1667,87
579,56	1625,04
579,64	1732,38
579,73	1630,69
579,82	1641,31
579,90	1606,40
579,99	1595,21
580,07	1631,26
580,16	1621,99
580,24	1653,97
580,33	1597,92
580,41	1635,32
580,50	1592,50
580,58	1605,83
580,67	1614,65
580,75	1622,90
580,84	1621,20
580,92	1606,06
581,01	1658,49
581,09	1617,47
581,18	1628,43
581,26	1633,06
581,35	1597,59
581,43	1634,76
581,52	1637,58
581,60	1621,99
581,69	1626,62
581,77	1627,64
581,86	1603,69
581,94	1611,94
582,02	1641,99
582,11	1604,48
582,19	1660,75
582,28	1679,84
582,36	1679,73
582,45	1674,76
582,53	1604,82
582,62	1620,64
582,70	1606,85
582,79	1627,08
582,87	1598,15
582,96	1630,35
583,04	1642,67
583,12	1646,51
583,21	1637,70
583,29	1626,17
583,38	1619,84
583,46	1607,30
583,55	1611,03
583,63	1608,55
583,71	1632,95
583,80	1626,40
583,88	1605,04
583,97	1690,80
584,05	1620,41
584,13	1642,10
584,22	1633,86
584,30	1609,34
584,39	1640,07
584,47	1637,25
584,55	1603,23
584,64	1629,79
584,72	1638,94
584,81	1624,48
584,89	1605,72
584,97	1617,02
585,06	1605,61
585,14	1612,39
585,23	1628,54
585,31	1602,78
585,39	1614,08
585,48	1619,96
585,56	1589,79
585,64	1637,02
585,73	1610,69
585,81	1624,03
585,90	1631,82
585,98	1598,83
586,06	1616,34
586,15	1650,92
586,23	1610,13
586,31	1606,96
586,40	1609,11
586,48	1655,10
586,56	1604,93
586,65	1612,95
586,73	1598,60
586,81	1643,01
586,90	1615,66
586,98	1590,01
587,06	1589,00
587,15	1629,45
587,23	1615,21
587,31	1607,30
587,40	1615,78
587,48	1601,09
587,56	1630,35
587,65	1681,42
587,73	1632,84
587,81	1631,60
587,90	1658,15
587,98	1629,11
588,06	1598,83
588,14	1591,94
588,23	1601,20
588,31	1644,48
588,39	1643,01
588,48	1611,71
588,56	1600,52
588,64	1616,91
588,72	1616,79
588,81	1625,72
588,89	1582,78
588,97	1614,53
589,06	1642,89
589,14	1635,55
589,22	1623,01
589,30	1604,25
589,39	1589,90
589,47	1614,87
589,55	1659,28
589,63	1619,17
589,72	1604,93
589,80	1605,61
589,88	1617,58
589,96	1625,38
590,05	1615,10
590,13	1612,05
590,21	1632,39
590,29	1643,01
590,38	1622,10
590,46	1635,21
590,54	1584,14
590,62	1593,07
590,71	1629,90
590,79	1656,45
590,87	1583,80
590,95	1589,45
591,03	1581,77
591,12	1610,13
591,20	1595,66
591,28	1660,97
591,36	1621,88
591,44	1597,36
591,53	1617,92
591,61	1611,94
591,69	1589,68
591,77	1622,78
591,85	1612,50
591,94	1584,82
592,02	1608,43
592,10	1613,97
592,18	1625,61
592,26	1599,84
592,34	1559,28
592,43	1581,65
592,51	1590,13
592,59	1584,03
592,67	1619,39
592,75	1591,37
592,84	1595,44
592,92	1616,79
593,00	1607,98
593,08	1600,64
593,16	1567,87
593,24	1591,94
593,32	1605,72
593,41	1596,34
593,49	1583,35
593,57	1567,87
593,65	1584,59
593,73	1607,30
593,81	1607,53
593,89	1616,00
593,98	1589,79
594,06	1585,72
594,14	1583,91
594,22	1585,95
594,30	1582,22
594,38	1585,72
594,46	1609,00
594,54	1615,89
594,62	1611,26
594,71	1588,77
594,79	1580,52
594,87	1579,73
594,95	1587,64
595,03	1623,80
595,11	1576,57
595,19	1637,13
595,27	1589,00
595,35	1579,51
595,43	1586,96
595,52	1576,12
595,60	1595,78
595,68	1625,83
595,76	1577,02
595,84	1598,26
595,92	1586,29
596,00	1616,12
596,08	1620,52
596,16	1607,98
596,24	1591,26
596,32	1567,98
596,40	1599,28
596,48	1594,76
596,56	1588,43
596,64	1566,40
596,73	1613,29
596,81	1578,04
596,89	1594,53
596,97	1576,23
597,05	1664,59
597,13	1585,72
597,21	1565,27
597,29	1571,37
597,37	1610,47
597,45	1596,00
597,53	1571,37
597,61	1589,00
597,69	1600,86
597,77	1578,72
597,85	1566,63
597,93	1588,43
598,01	1577,13
598,09	1597,81
598,17	1575,78
598,25	1582,11
598,33	1556,23
598,41	1592,50
598,49	1557,70
598,57	1572,28
598,65	1574,53
598,73	1586,51
598,81	1579,17
598,89	1583,01
598,97	1560,30
599,05	1604,82
599,13	1564,93
599,21	1557,70
599,29	1566,96
599,37	1570,47
599,45	1575,44
599,53	1605,61
599,61	1552,61
599,69	1592,27
599,77	1561,88
599,85	1558,60
599,93	1559,73
600,00	1551,37
600,08	1574,76
600,16	1545,04
600,24	1560,41
600,32	1612,73
600,40	1622,78
600,48	1591,94
600,56	1593,52
600,64	1586,51
600,72	1561,65
600,80	1576,57
600,88	1565,04
600,96	1598,72
601,04	1557,47
601,12	1571,03
601,19	1542,90
601,27	1569,34
601,35	1562,44
601,43	1550,69
601,51	1574,20
601,59	1555,89
601,67	1546,51
601,75	1547,98
601,83	1559,96
601,91	1554,31
601,98	1574,42
602,06	1592,27
602,14	1574,76
602,22	1563,35
602,30	1579,62
602,38	1564,25
602,46	1552,84
602,54	1595,10
602,61	1570,58
602,69	1567,87
602,77	1543,01
602,85	1541,09
602,93	1558,83
603,01	1556,12
603,09	1597,47
603,17	1564,48
603,24	1577,25
603,32	1544,03
603,40	1554,65
603,48	1578,60
603,56	1547,76
603,64	1570,81
603,71	1555,44
603,79	1556,46
603,87	1582,90
603,95	1625,95
604,03	1569,79
604,11	1583,24
604,18	1568,55
604,26	1557,47
604,34	1551,82
604,42	1579,62
604,50	1548,32
604,57	1549,34
604,65	1552,39
604,73	1549,56
604,81	1570,24
604,89	1533,29
604,96	1568,21
605,04	1585,04
605,12	1554,99
605,20	1586,06
605,28	1599,17
605,35	1565,61
605,43	1571,15
605,51	1557,36
605,59	1593,07
605,67	1597,70
605,74	1557,81
605,82	1563,35
605,90	1551,71
605,98	1574,42
606,05	1578,04
606,13	1559,73
606,21	1559,85
606,29	1551,37
606,36	1562,11
606,44	1538,26
606,52	1565,27
606,60	1553,52
606,67	1540,75
606,75	1547,42
606,83	1532,50
606,91	1584,82
606,98	1549,90
607,06	1565,83
607,14	1556,34
607,22	1549,68
607,29	1536,68
607,37	1568,89
607,45	1574,87
607,52	1574,76
607,60	1567,30
607,68	1554,08
607,76	1543,58
607,83	1545,27
607,91	1560,52
607,99	1576,68
608,06	1545,27
608,14	1550,92
608,22	1541,32
608,30	1586,62
608,37	1544,25
608,45	1519,85
608,53	1546,85
608,60	1546,74
608,68	1543,35
608,76	1543,91
608,83	1577,81
608,91	1533,18
608,99	1582,44
609,06	1570,35
609,14	1562,33
609,22	1545,72
609,29	1533,52
609,37	1536,00
609,45	1571,26
609,52	1539,51
609,60	1520,98
609,68	1532,16
609,75	1554,76
609,83	1523,58
609,91	1600,30
609,98	1561,99
610,06	1532,84
610,13	1554,08
610,21	1536,12
610,29	1554,87
610,36	1520,52
610,44	1553,97
610,52	1555,55
610,59	1517,25
610,67	1528,21
610,74	1546,40
610,82	1528,89
610,90	1545,38
610,97	1531,71
611,05	1543,24
611,13	1541,99
611,20	1588,09
611,28	1533,29
611,35	1543,01
611,43	1505,50
611,51	1559,06
611,58	1550,69
611,66	1574,99
611,73	1534,08
611,81	1566,17
611,88	1542,22
611,96	1566,51
612,04	1540,75
612,11	1520,86
612,19	1571,37
612,26	1538,49
612,34	1539,28
612,41	1536,91
612,49	1522,45
612,57	1522,56
612,64	1522,11
612,72	1553,52
612,79	1577,59
612,87	1525,95
612,94	1511,94
613,02	1558,60
613,09	1545,04
613,17	1544,59
613,24	1536,12
613,32	1554,87
613,40	1525,95
613,47	1524,93
613,55	1507,64
613,62	1549,90
613,70	1561,20
613,77	1528,21
613,85	1562,44
613,92	1529,00
614,00	1506,74
614,07	1518,60
614,15	1509,34
614,22	1513,86
614,30	1552,50
614,37	1526,74
614,45	1531,71
614,52	1519,96
614,60	1522,45
614,67	1557,59
614,75	1520,30
614,82	1530,69
614,90	1531,60
614,97	1519,62
615,05	1566,74
615,12	1553,63
615,20	1548,77
615,27	1537,02
615,34	1531,60
615,42	1516,91
615,49	1527,87
615,57	1511,26
615,64	1517,59
615,72	1519,17
615,79	1517,14
615,87	1543,01
615,94	1559,17
616,02	1547,30
616,09	1541,54
616,16	1537,59
616,24	1531,94
616,31	1521,32
616,39	1589,00
616,46	1568,66
616,54	1545,16
616,61	1576,79
616,68	1513,18
616,76	1525,16
616,83	1525,27
616,91	1514,99
616,98	1509,45
617,06	1555,21
617,13	1507,53
617,20	1511,82
617,28	1523,91
617,35	1518,72
617,43	1559,06
617,50	1525,16
617,57	1515,33
>>>>>End Processed Spectral Data<<<<<
