SpectraSuite Datei
++++++++++++++++++++++++++++++++++++
Datum: Sun Jan 04 06:25:30 CET 2004
Benutzer: H. Stützler
Dark-Spektrum vorhanden: Nein
Referenz-Spektrum vorhanden: Nein
Zahl der probierten Teilspektren: 1
Spektrometer: USB2+H04734
Integrationszeit (usec): 1000000 (USB2+H04734)
Spektren Durchschnitt berechnet: 10 (USB2+H04734)
Boxcar Glättung: 0 (USB2+H04734)
Dunkelstromkorrektur: Nein (USB2+H04734)
Puls/Lampe aktiviert: Nein (USB2+H04734)
Correct for Detector Non-linearity: Nein (USB2+H04734)
Streulichtkorrektur: Nein (USB2+H04734)
Anzahl Pixel in verarbeitetem Spektrum: 2048
>>>>>Begin Processed Spectral Data<<<<<
418,45	1221,89
418,57	1221,89
418,69	1221,89
418,80	1164,49
418,92	1146,41
419,04	1349,34
419,16	1199,74
419,28	1198,39
419,40	1171,95
419,52	1192,51
419,64	1171,27
419,75	1193,87
419,87	1197,48
419,99	1184,15
420,11	1193,19
420,23	1205,17
420,35	1265,28
420,47	1252,40
420,58	1246,52
420,70	1279,29
420,82	1281,55
420,94	1289,46
421,06	1395,44
421,18	1320,87
421,29	1335,56
421,41	1324,26
421,53	1360,87
421,65	1404,71
421,77	1426,86
421,89	1356,57
422,00	1460,30
422,12	1399,96
422,24	1377,82
422,36	1454,20
422,48	1462,79
422,59	1406,97
422,71	1446,06
422,83	1369,00
422,95	1384,60
423,07	1429,57
423,18	1497,14
423,30	1473,41
423,42	1394,77
423,54	1430,02
423,66	1404,26
423,77	1421,66
423,89	1406,97
424,01	1415,10
424,13	1377,82
424,25	1401,55
424,36	1447,87
424,48	1424,60
424,60	1412,17
424,72	1466,85
424,84	1402,45
424,95	1475,44
425,07	1416,69
425,19	1391,38
425,31	1435,89
425,42	1358,83
425,54	1433,18
425,66	1391,83
425,78	1396,35
425,89	1391,83
426,01	1390,02
426,13	1386,40
426,25	1435,22
426,36	1401,09
426,48	1427,31
426,60	1453,75
426,72	1382,56
426,83	1436,35
426,95	1424,60
427,07	1387,31
427,19	1507,30
427,30	1399,74
427,42	1355,90
427,54	1359,96
427,66	1402,67
427,77	1373,30
427,89	1406,29
428,01	1433,41
428,12	1439,96
428,24	1371,49
428,36	1385,95
428,48	1355,67
428,59	1364,26
428,71	1397,48
428,83	1370,13
428,94	1390,47
429,06	1371,94
429,18	1424,37
429,30	1405,84
429,41	1393,86
429,53	1451,94
429,65	1427,31
429,76	1428,21
429,88	1384,14
430,00	1419,85
430,11	1480,64
430,23	1407,42
430,35	1482,67
430,47	1385,95
430,58	1378,95
430,70	1466,63
430,82	1416,91
430,93	1599,51
431,05	1436,57
431,17	1392,28
431,28	1446,29
431,40	1388,21
431,52	1491,26
431,63	1371,26
431,75	1356,80
431,87	1380,53
431,98	1441,54
432,10	1401,09
432,22	1392,96
432,33	1450,58
432,45	1406,74
432,56	1418,04
432,68	1440,64
432,80	1402,67
432,91	1472,28
433,03	1393,18
433,15	1464,59
433,26	1423,01
433,38	1392,73
433,50	1380,08
433,61	1441,32
433,73	1459,85
433,84	1392,05
433,96	1381,21
434,08	1401,32
434,19	1390,70
434,31	1367,87
434,43	1400,64
434,54	1388,44
434,66	1338,95
434,77	1355,90
434,89	1440,19
435,01	1420,75
435,12	1384,60
435,24	1394,31
435,35	1384,60
435,47	1488,55
435,59	1418,27
435,70	1374,88
435,82	1399,06
435,93	1443,35
436,05	1399,51
436,17	1385,73
436,28	1429,57
436,40	1423,01
436,51	1376,24
436,63	1394,77
436,74	1447,19
436,86	1459,40
436,98	1620,07
437,09	1386,86
437,21	1463,01
437,32	1378,04
437,44	1446,74
437,55	1400,42
437,67	1782,55
437,79	1533,07
437,90	1410,13
438,02	1387,99
438,13	2224,12
438,25	1478,83
438,36	1436,57
438,48	1432,50
438,59	1460,75
438,71	1437,02
438,83	1388,66
438,94	1363,81
439,06	1450,13
439,17	1445,61
439,29	1370,59
439,40	1412,39
439,52	1394,54
439,63	1423,01
439,75	1379,17
439,86	1355,44
439,98	1397,03
440,09	1462,79
440,21	1406,29
440,32	1402,22
440,44	1368,10
440,55	1416,23
440,67	1402,67
440,78	1472,28
440,90	1379,40
441,01	1394,99
441,13	1369,46
441,24	1432,50
441,36	1456,91
441,47	1398,38
441,59	1449,91
441,70	1367,65
441,82	1451,26
441,93	1425,50
442,05	1366,74
442,16	1417,14
442,28	1380,30
442,39	1408,78
442,51	1452,62
442,62	1367,42
442,74	1452,39
442,85	1413,52
442,97	1514,54
443,08	1449,45
443,20	1425,50
443,31	1432,50
443,43	1393,64
443,54	1428,89
443,66	1357,93
443,77	1387,08
443,88	1394,31
444,00	1426,18
444,11	1447,65
444,23	1480,19
444,34	1362,45
444,46	1375,56
444,57	1458,49
444,69	1474,99
444,80	1443,35
444,91	1523,12
445,03	1369,68
445,14	1448,32
445,26	1376,24
445,37	1385,95
445,49	1428,21
445,60	1474,31
445,71	1492,62
445,83	1404,03
445,94	1387,53
446,06	1455,33
446,17	1381,66
446,29	1353,64
446,40	1413,52
446,51	1476,80
446,63	1407,19
446,74	1372,85
446,86	1391,15
446,97	1472,50
447,08	1393,64
447,20	1413,52
447,31	1367,42
447,43	1404,71
447,54	1409,00
447,65	1423,69
447,77	1391,15
447,88	1402,67
448,00	1421,88
448,11	1371,72
448,22	1398,61
448,34	1428,44
448,45	1361,32
448,56	1405,84
448,68	1389,12
448,79	1467,53
448,90	1427,99
449,02	1411,94
449,13	1381,43
449,25	1420,98
449,36	1404,26
449,47	1390,70
449,59	1492,62
449,70	1416,01
449,81	1396,57
449,93	1399,74
450,04	1369,91
450,15	1398,38
450,27	1419,17
450,38	1416,91
450,49	1390,47
450,61	1481,77
450,72	1401,32
450,83	1432,50
450,95	1399,29
451,06	1434,09
451,17	1489,90
451,29	1460,07
451,40	1388,66
451,51	1378,95
451,63	1364,71
451,74	1460,30
451,85	1404,26
451,97	1444,71
452,08	1421,21
452,19	1384,37
452,31	1482,67
452,42	1396,35
452,53	1481,09
452,65	1486,51
452,76	1376,69
452,87	1378,72
452,98	1367,42
453,10	1393,41
453,21	1369,00
453,32	1378,72
453,44	1383,92
453,55	1366,52
453,66	1539,85
453,77	1446,52
453,89	1443,35
454,00	1508,66
454,11	1424,14
454,23	1404,48
454,34	1432,05
454,45	1366,29
454,56	1411,04
454,68	1517,25
454,79	1396,35
454,90	1427,99
455,01	1403,13
455,13	1367,65
455,24	1481,09
455,35	1390,47
455,46	1326,07
455,58	1345,73
455,69	1471,83
455,80	1454,20
455,91	1389,12
456,03	1391,15
456,14	1457,14
456,25	1375,11
456,36	1372,85
456,48	1402,00
456,59	1474,54
456,70	1373,75
456,81	1472,96
456,92	1530,81
457,04	1467,31
457,15	1540,30
457,26	1390,70
457,37	1370,36
457,49	1387,53
457,60	1382,11
457,71	1437,02
457,82	1430,02
457,93	1405,39
458,05	1432,96
458,16	1410,58
458,27	1412,39
458,38	1426,86
458,49	1453,07
458,61	1402,90
458,72	1420,08
458,83	1381,66
458,94	1456,68
459,05	1436,35
459,17	1646,74
459,28	1405,84
459,39	1414,20
459,50	1375,11
459,61	1435,22
459,72	1381,66
459,84	1372,85
459,95	1416,01
460,06	1651,71
460,17	1403,13
460,28	1416,23
460,39	1405,61
460,51	1429,79
460,62	1417,59
460,73	1403,80
460,84	1378,49
460,95	1479,51
461,06	1520,19
461,18	1475,22
461,29	1470,47
461,40	1413,52
461,51	1440,64
461,62	1552,50
461,73	1410,13
461,84	1444,26
461,96	1437,48
462,07	1431,15
462,18	1409,68
462,29	1415,78
462,40	1469,34
462,51	1397,25
462,62	1479,28
462,73	1555,44
462,85	1471,83
462,96	1445,16
463,07	1461,88
463,18	1532,16
463,29	1437,25
463,40	1381,21
463,51	1381,21
463,62	1375,56
463,73	1442,67
463,85	1382,79
463,96	1399,06
464,07	1414,20
464,18	1404,48
464,29	1373,75
464,40	1469,34
464,51	1420,53
464,62	1412,17
464,73	1393,18
464,84	1451,26
464,95	1414,88
465,06	1398,38
465,18	1380,08
465,29	1424,60
465,40	1393,86
465,51	1400,19
465,62	1453,30
465,73	1407,87
465,84	1408,10
465,95	1436,80
466,06	1413,52
466,17	1422,34
466,28	1412,39
466,39	1483,58
466,50	1378,49
466,61	1363,58
466,72	1421,88
466,83	1385,95
466,95	1403,58
467,06	1348,67
467,17	1406,29
467,28	1407,65
467,39	1392,51
467,50	1435,89
467,61	1374,20
467,72	1383,01
467,83	1372,17
467,94	1410,58
468,05	1391,60
468,16	1436,57
468,27	1423,92
468,38	1364,03
468,49	1461,88
468,60	1364,48
468,71	1484,48
468,82	1461,20
468,93	1462,56
469,04	1493,97
469,15	1415,10
469,26	1399,51
469,37	1406,74
469,48	1481,32
469,59	1444,48
469,70	1395,67
469,81	1403,13
469,92	1378,27
470,03	1451,26
470,14	1388,66
470,25	1453,30
470,36	1424,82
470,47	1378,72
470,58	1366,97
470,69	1461,20
470,80	1461,43
470,91	1392,28
471,02	1401,55
471,13	1426,63
471,24	1407,19
471,35	1400,19
471,46	1474,99
471,56	1469,11
471,67	1467,53
471,78	1502,33
471,89	1372,62
472,00	1396,35
472,11	1463,46
472,22	1460,53
472,33	1399,51
472,44	1400,87
472,55	1378,95
472,66	1415,56
472,77	1404,48
472,88	1535,78
472,99	1465,95
473,10	1376,91
473,21	1382,11
473,32	1406,97
473,42	1378,72
473,53	1401,32
473,64	1413,52
473,75	1442,00
473,86	1424,14
473,97	1445,84
474,08	1425,73
474,19	1458,94
474,30	1527,19
474,41	1445,61
474,52	1398,83
474,62	1412,62
474,73	1380,98
474,84	1497,14
474,95	1431,37
475,06	1454,43
475,17	1369,91
475,28	1369,23
475,39	1421,66
475,50	1382,56
475,60	1377,36
475,71	1383,01
475,82	1476,57
475,93	1399,29
476,04	1473,63
476,15	1401,77
476,26	1435,89
476,37	1402,67
476,47	1386,86
476,58	1370,59
476,69	1376,01
476,80	1389,12
476,91	1421,66
477,02	1423,24
477,13	1388,21
477,23	1395,44
477,34	1418,95
477,45	1430,92
477,56	1386,18
477,67	1397,70
477,78	1412,84
477,89	1445,61
477,99	1385,95
478,10	1453,75
478,21	1422,56
478,32	1416,01
478,43	1400,87
478,54	1511,60
478,64	1446,29
478,75	1429,34
478,86	1378,49
478,97	1396,57
479,08	1412,84
479,18	1397,70
479,29	1395,22
479,40	1398,16
479,51	1366,97
479,62	1390,47
479,72	1409,45
479,83	1360,64
479,94	1426,40
480,05	1425,27
480,16	1384,37
480,26	1438,61
480,37	1398,16
480,48	1452,17
480,59	1394,09
480,70	1410,58
480,80	1422,11
480,91	1379,62
481,02	1386,63
481,13	1427,31
481,24	1412,17
481,34	1397,25
481,45	1507,30
481,56	1396,35
481,67	1404,26
481,77	1404,03
481,88	1392,96
481,99	1405,39
482,10	1411,71
482,20	1728,77
482,31	1397,70
482,42	1442,90
482,53	1416,01
482,63	1490,13
482,74	1459,62
482,85	1373,07
482,96	1377,14
483,06	1372,17
483,17	1421,88
483,28	1393,18
483,39	1418,49
483,49	1467,53
483,60	1519,51
483,71	1389,57
483,81	1454,88
483,92	1404,03
484,03	1409,91
484,14	1409,68
484,24	1377,14
484,35	1402,90
484,46	1397,70
484,57	1388,89
484,67	1432,96
484,78	1402,90
484,89	1536,91
484,99	1395,44
485,10	1383,92
485,21	1442,90
485,31	1440,41
485,42	1416,91
485,53	1418,27
485,63	1402,00
485,74	1489,45
485,85	1569,22
485,96	2041,75
486,06	1425,73
486,17	1445,84
486,28	1442,00
486,38	1370,81
486,49	1446,06
486,60	1391,83
486,70	1382,56
486,81	1414,20
486,92	1398,16
487,02	1394,09
487,13	1348,89
487,24	1406,29
487,34	1395,90
487,45	1495,78
487,56	1412,17
487,66	1369,46
487,77	1418,95
487,87	1401,32
487,98	1382,56
488,09	1400,42
488,19	1371,49
488,30	1529,23
488,41	1420,98
488,51	1383,69
488,62	1371,72
488,73	1372,17
488,83	1420,30
488,94	1430,02
489,04	1506,63
489,15	1390,25
489,26	1384,14
489,36	1433,63
489,47	1416,91
489,58	1397,70
489,68	1442,00
489,79	1384,60
489,89	1419,85
490,00	1410,13
490,11	1445,61
490,21	1428,44
490,32	1384,14
490,42	1420,53
490,53	1430,47
490,64	1393,18
490,74	1367,87
490,85	1375,33
490,95	1446,97
491,06	1430,70
491,16	1384,37
491,27	1450,13
491,38	1391,38
491,48	1532,84
491,59	1514,08
491,69	1445,16
491,80	1386,63
491,90	1509,79
492,01	1407,87
492,12	1451,71
492,22	1404,03
492,33	1462,11
492,43	1426,63
492,54	1364,48
492,64	1366,52
492,75	1432,50
492,86	1424,37
492,96	1409,00
493,07	1392,96
493,17	1434,76
493,28	1421,88
493,38	1413,30
493,49	1411,71
493,59	1439,74
493,70	1417,14
493,80	1377,14
493,91	1366,07
494,01	1377,14
494,12	1408,32
494,22	1462,11
494,33	1497,59
494,43	1491,26
494,54	1494,65
494,64	1449,91
494,75	1392,96
494,86	1462,79
494,96	1407,87
495,07	1419,85
495,17	1470,02
495,28	1402,00
495,38	1396,35
495,49	1422,79
495,59	1438,15
495,69	1413,75
495,80	1484,93
495,90	1395,44
496,01	1379,85
496,11	1460,07
496,22	1395,44
496,32	1381,21
496,43	1453,97
496,53	1401,55
496,64	1406,29
496,74	1426,86
496,85	1437,48
496,95	1428,21
497,06	1418,49
497,16	1430,02
497,27	1409,91
497,37	1472,96
497,48	1372,62
497,58	1374,20
497,68	1411,26
497,79	1474,99
497,89	1395,44
498,00	1388,89
498,10	1391,15
498,21	1473,18
498,31	1409,68
498,42	1400,19
498,52	1465,05
498,62	1424,60
498,73	1413,30
498,83	1455,78
498,94	1403,35
499,04	1477,25
499,15	1409,23
499,25	1395,22
499,35	1460,98
499,46	1523,35
499,56	1531,94
499,67	1455,78
499,77	1383,47
499,87	1399,51
499,98	1407,65
500,08	1376,46
500,19	1393,41
500,29	1420,98
500,39	1444,48
500,50	1463,92
500,60	1419,62
500,71	1431,15
500,81	1434,09
500,91	1396,35
501,02	1402,22
501,12	1445,61
501,22	1406,29
501,33	1441,32
501,43	1433,63
501,54	1386,40
501,64	1383,69
501,74	1418,27
501,85	1492,39
501,95	1390,70
502,05	1397,25
502,16	1404,71
502,26	1481,77
502,37	1475,22
502,47	1443,13
502,57	1413,75
502,68	1414,43
502,78	1393,86
502,88	1463,69
502,99	1407,65
503,09	1472,96
503,19	1401,32
503,30	1395,22
503,40	1400,64
503,50	1416,23
503,61	1428,44
503,71	1419,17
503,81	1422,11
503,92	1429,79
504,02	1487,87
504,12	1594,76
504,23	1501,88
504,33	1445,39
504,43	1428,44
504,54	1475,44
504,64	1465,95
504,74	1629,11
504,84	1428,44
504,95	1439,28
505,05	1402,00
505,15	1521,77
505,26	1423,01
505,36	1413,30
505,46	1408,78
505,56	1455,10
505,67	1464,14
505,77	1458,27
505,87	1412,62
505,98	1411,49
506,08	1430,92
506,18	1439,96
506,28	1453,07
506,39	1443,13
506,49	1444,93
506,59	1430,02
506,70	1407,42
506,80	1456,01
506,90	1535,33
507,00	1395,90
507,11	1468,44
507,21	1485,16
507,31	1471,60
507,41	1456,46
507,52	1440,41
507,62	1449,23
507,72	1523,58
507,82	1526,97
507,93	1433,63
508,03	1512,50
508,13	1481,54
508,23	1434,54
508,34	1470,47
508,44	1435,44
508,54	1432,73
508,64	1461,88
508,74	1421,88
508,85	1452,17
508,95	1453,75
509,05	1436,57
509,15	1464,14
509,26	1475,22
509,36	1427,31
509,46	1463,46
509,56	1435,67
509,66	1467,31
509,77	1446,74
509,87	1457,14
509,97	1444,26
510,07	1466,40
510,17	1429,57
510,28	1588,88
510,38	1520,64
510,48	1464,59
510,58	1479,28
510,68	1473,86
510,78	1488,32
510,89	1467,31
510,99	1444,48
511,09	1501,66
511,19	1493,52
511,29	1434,99
511,39	1511,82
511,50	1526,74
511,60	1447,42
511,70	1507,53
511,80	1524,48
511,90	1513,18
512,00	1474,76
512,11	1448,78
512,21	1473,63
512,31	1451,71
512,41	1550,24
512,51	1509,56
512,61	1618,26
512,71	1460,75
512,82	1447,19
512,92	1434,09
513,02	1530,58
513,12	1473,41
513,22	1480,87
513,32	1538,26
513,42	1507,30
513,53	1557,25
513,63	1534,20
513,73	1559,06
513,83	1466,63
513,93	1531,26
514,03	1526,74
514,13	1594,99
514,23	1491,71
514,33	1514,08
514,44	1497,14
514,54	1511,37
514,64	1609,68
514,74	1499,40
514,84	1497,59
514,94	1560,41
515,04	1575,10
515,14	1534,20
515,24	1546,63
515,34	1520,86
515,44	1479,96
515,55	1499,62
515,65	1544,37
515,75	1530,81
515,85	1550,92
515,95	1593,86
516,05	1595,21
516,15	1554,54
516,25	1523,80
516,35	1537,59
516,45	1555,21
516,55	1527,87
516,65	1578,94
516,75	1696,23
516,85	1619,39
516,95	1631,14
517,05	1644,02
517,16	1569,45
517,26	1748,20
517,36	1601,77
517,46	1585,04
517,56	1664,36
517,66	1721,76
517,76	1792,50
517,86	1953,39
517,96	2243,10
518,06	2458,92
518,16	2810,77
518,26	3170,76
518,36	3354,04
518,46	3507,48
518,56	3598,32
518,66	3542,51
518,76	3321,49
518,86	3121,95
518,96	2785,24
519,06	2570,55
519,16	2399,94
519,26	2222,77
519,36	2193,16
519,46	2142,99
519,56	2226,61
519,66	2225,70
519,76	2045,37
519,86	2005,37
519,96	1985,26
520,06	1889,44
520,16	1968,08
520,26	1853,06
520,36	1771,70
520,46	1741,20
520,56	1733,29
520,66	1717,92
520,76	1698,26
520,86	1707,07
520,96	1764,70
521,06	1726,28
521,16	1669,33
521,26	1696,45
521,35	1728,32
521,45	1660,97
521,55	1694,19
521,65	1727,19
521,75	1675,66
521,85	1667,53
521,95	1695,77
522,05	1656,00
522,15	1695,10
522,25	2103,67
522,35	1783,68
522,45	1716,11
522,55	1759,28
522,65	1745,94
522,75	1707,53
522,85	1703,01
522,94	1715,44
523,04	1731,93
523,14	1715,21
523,24	1657,36
523,34	1666,62
523,44	1665,27
523,54	1620,07
523,64	1603,12
523,74	1681,54
523,84	1625,27
523,94	1607,19
524,03	1517,47
524,13	1544,59
524,23	1522,45
524,33	1455,55
524,43	1450,36
524,53	1473,41
524,63	1451,94
524,73	1436,80
524,83	1401,09
524,92	1430,70
525,02	1373,52
525,12	1452,84
525,22	1418,04
525,32	1402,22
525,42	1456,01
525,52	1420,98
525,61	1427,08
525,71	1377,82
525,81	1424,14
525,91	1383,24
526,01	1402,45
526,11	1438,83
526,21	1459,40
526,30	1416,69
526,40	1389,79
526,50	1434,09
526,60	1439,96
526,70	1449,23
526,80	1416,23
526,89	1383,24
526,99	1391,83
527,09	1444,93
527,19	1441,77
527,29	1454,43
527,39	1428,89
527,48	1435,67
527,58	1427,08
527,68	1356,12
527,78	1486,06
527,88	1537,59
527,97	1420,08
528,07	1386,86
528,17	1475,22
528,27	1466,63
528,37	1419,40
528,46	1364,94
528,56	1476,12
528,66	1451,49
528,76	1373,30
528,86	1457,81
528,95	1416,01
529,05	1410,36
529,15	1414,20
529,25	1448,55
529,35	1463,46
529,44	1456,46
529,54	1478,61
529,64	1419,85
529,74	1390,47
529,83	1390,02
529,93	1400,42
530,03	1430,02
530,13	1432,96
530,22	1480,87
530,32	1453,07
530,42	1444,26
530,52	1378,72
530,61	1440,41
530,71	1393,86
530,81	1493,07
530,91	1498,94
531,00	1656,68
531,10	1820,29
531,20	2064,58
531,30	2147,29
531,39	2257,79
531,49	2387,73
531,59	2716,76
531,69	2587,05
531,78	2420,50
531,88	2360,39
531,98	2250,79
532,07	1994,52
532,17	1863,68
532,27	1749,56
532,37	1541,43
532,46	1490,13
532,56	1437,02
532,66	1413,75
532,75	1433,41
532,85	1415,33
532,95	1416,91
533,04	1409,91
533,14	1443,35
533,24	1442,00
533,34	1397,48
533,43	1456,46
533,53	1384,60
533,63	1422,79
533,72	1413,30
533,82	1388,21
533,92	1394,99
534,01	1566,51
534,11	1580,52
534,21	1447,87
534,30	1406,29
534,40	1400,87
534,50	1390,25
534,59	1406,29
534,69	1382,56
534,79	1436,35
534,88	1489,00
534,98	1467,31
535,08	1357,25
535,17	1445,84
535,27	1418,27
535,36	1404,93
535,46	1446,06
535,56	1385,27
535,65	1443,35
535,75	1465,50
535,85	1422,11
535,94	1410,58
536,04	1428,21
536,14	1456,23
536,23	1492,16
536,33	1419,85
536,42	1437,48
536,52	1421,43
536,62	1398,61
536,71	1450,81
536,81	1424,82
536,90	1416,23
537,00	1420,30
537,10	1418,95
537,19	1446,52
537,29	1473,63
537,38	1524,03
537,48	1501,66
537,58	1501,20
537,67	1485,38
537,77	1525,61
537,86	1532,16
537,96	1639,96
538,06	1645,15
538,15	1706,62
538,25	1911,36
538,34	2025,71
538,44	2054,64
538,53	1978,71
538,63	2050,57
538,73	2022,55
538,82	1999,04
538,92	1955,43
539,01	2080,40
539,11	1949,78
539,20	2106,39
539,30	2041,75
539,39	2028,42
539,49	2098,48
539,59	2139,60
539,68	2321,52
539,78	2331,01
539,87	2293,50
539,97	2364,23
540,06	2389,99
540,16	2361,29
540,25	2429,54
540,35	2560,38
540,44	2519,93
540,54	2620,95
540,63	2555,64
540,73	2536,20
540,82	2658,46
540,92	2612,36
541,01	2695,52
541,11	2767,61
541,20	2710,21
541,30	2729,19
541,39	2732,58
541,49	2691,00
541,58	2800,60
541,68	2835,18
541,77	2780,72
541,87	2728,97
541,96	2731,68
542,06	2884,44
542,15	2908,62
542,25	3080,82
542,34	2979,58
542,44	2945,91
542,53	2983,20
542,63	3034,50
542,72	3026,36
542,82	3083,76
542,91	3143,19
543,01	3162,18
543,10	3292,57
543,20	3316,97
543,29	3461,83
543,38	3593,13
543,48	3793,12
543,57	4074,70
543,67	4423,61
543,76	4845,52
543,86	5319,18
543,95	5712,84
544,05	6188,09
544,14	6409,32
544,23	6404,13
544,33	6265,15
544,42	6236,45
544,52	6172,95
544,61	6532,71
544,71	7546,47
544,80	9385,97
544,89	11883,30
544,99	14700,63
545,08	17581,68
545,18	19707,28
545,27	21245,77
545,36	21384,97
545,46	20093,93
545,55	17986,87
545,65	15125,03
545,74	12257,98
545,84	9458,51
545,93	7209,30
546,02	5591,49
546,12	4570,50
546,21	3961,70
546,30	3664,76
546,40	3445,33
546,49	3302,51
546,59	3278,56
546,68	3217,32
546,77	3254,38
546,87	3153,59
546,96	3239,69
547,05	3148,84
547,15	3055,51
547,24	3104,10
547,34	3067,26
547,43	3069,75
547,52	3095,51
547,62	3102,52
547,71	3087,60
547,80	3104,10
547,90	2999,92
547,99	3135,51
548,08	3051,45
548,18	2940,04
548,27	2945,69
548,36	2969,41
548,46	2964,44
548,55	2960,37
548,64	2962,63
548,74	2935,29
548,83	2968,51
548,92	3049,64
549,02	2931,00
549,11	3138,45
549,20	3000,37
549,30	2945,69
549,39	3015,06
549,48	3027,27
549,58	2969,41
549,67	3018,68
549,76	3019,81
549,85	2990,88
549,95	3017,10
550,04	3029,30
550,13	2995,40
550,23	3065,68
550,32	2958,57
550,41	2974,61
550,50	3047,60
550,60	3083,53
550,69	3017,55
550,78	2985,68
550,88	3044,89
550,97	3052,58
551,06	3015,06
551,15	3022,52
551,25	3089,18
551,34	2983,88
551,43	3024,78
551,52	2994,72
551,62	3052,12
551,71	3091,22
551,80	3100,03
551,89	3041,05
551,99	3059,81
552,08	3042,86
552,17	3020,03
552,26	3055,74
552,36	3011,67
552,45	3029,52
552,54	3019,36
552,63	3102,07
552,73	3173,02
552,82	3192,68
552,91	3112,69
553,00	3215,96
553,10	3110,65
553,19	3132,57
553,28	3039,47
553,37	3110,20
553,46	3021,84
553,56	3088,28
553,65	3040,82
553,74	3018,00
553,83	3080,37
553,92	3070,65
554,02	3084,21
554,11	3051,67
554,20	3017,77
554,29	3179,35
554,38	3056,42
554,48	3070,65
554,57	3089,86
554,66	3092,12
554,75	3096,87
554,84	3143,87
554,94	3158,79
555,03	3129,64
555,12	3133,02
555,21	3146,36
555,30	3323,30
555,39	3198,11
555,49	3243,53
555,58	3279,69
555,67	3316,52
555,76	3406,46
555,85	3311,33
555,94	3296,18
556,03	3329,86
556,13	3377,76
556,22	3353,36
556,31	3356,52
556,40	3320,36
556,49	3437,88
556,58	3345,90
556,67	3390,19
556,77	3399,68
556,86	3531,88
556,95	3506,35
557,04	3614,14
557,13	3673,58
557,22	3627,93
557,31	3596,29
557,40	3599,91
557,50	3687,59
557,59	3529,85
557,68	3550,42
557,77	3597,42
557,86	3505,44
557,95	3476,52
558,04	3411,89
558,13	3374,60
558,22	3365,11
558,31	3357,43
558,41	3283,53
558,50	3322,40
558,59	3318,33
558,68	3344,09
558,77	3352,68
558,86	3225,68
558,95	3245,11
559,04	3319,46
559,13	3357,65
559,22	3305,68
559,31	3291,89
559,40	3276,98
559,49	3276,98
559,59	3348,39
559,68	3245,56
559,77	3364,88
559,86	3415,96
559,95	3254,60
560,04	3261,61
560,13	3287,60
560,22	3397,65
560,31	3278,56
560,40	3277,43
560,49	3191,78
560,58	3248,50
560,67	3229,97
560,76	3229,07
560,85	3201,27
560,94	3326,24
561,03	3267,71
561,12	3473,81
561,21	3406,24
561,30	3263,42
561,39	3255,96
561,48	3261,84
561,57	3220,93
561,66	3311,10
561,75	3352,68
561,84	3268,84
561,93	3253,70
562,02	3252,80
562,11	3267,48
562,20	3201,05
562,29	3267,03
562,38	3207,37
562,47	3297,09
562,56	3314,72
562,65	3277,88
562,74	3279,01
562,83	3474,71
562,92	3335,28
563,01	3380,02
563,10	3291,44
563,19	3297,31
563,28	3493,69
563,37	3410,76
563,46	3310,87
563,55	3308,61
563,64	3495,73
563,73	3294,83
563,82	3394,71
563,91	3437,20
564,00	3341,16
564,09	3293,47
564,18	3360,36
564,27	3283,08
564,35	3345,67
564,44	3356,30
564,53	3369,40
564,62	3372,79
564,71	3351,55
564,80	3318,10
564,89	3354,94
564,98	3485,78
565,07	3354,26
565,16	3299,80
565,25	3648,27
565,34	3346,80
565,43	3345,90
565,51	3357,88
565,60	3461,83
565,69	3335,96
565,78	3508,16
565,87	3333,02
565,96	3320,14
566,05	3411,21
566,14	3436,29
566,23	3401,72
566,32	3503,86
566,40	3450,76
566,49	3489,85
566,58	3366,01
566,67	3406,92
566,76	3349,29
566,85	3385,00
566,94	3416,86
567,03	3435,39
567,11	3408,27
567,20	3398,10
567,29	3487,37
567,38	3446,92
567,47	3345,00
567,56	3406,01
567,65	3413,47
567,73	3334,83
567,82	3340,25
567,91	3412,57
568,00	3398,55
568,09	3457,08
568,18	3383,64
568,27	3410,53
568,35	3417,54
568,44	3434,94
568,53	3421,15
568,62	3386,35
568,71	3361,72
568,80	3428,61
568,88	3472,68
568,97	3491,43
569,06	3357,88
569,15	3415,96
569,24	3448,72
569,32	3468,84
569,41	3433,81
569,50	3406,24
569,59	3354,71
569,68	3384,77
569,76	3433,58
569,85	3434,26
569,94	3512,22
570,03	3361,04
570,12	3487,37
570,20	3450,30
570,29	3460,02
570,38	3421,83
570,47	3471,10
570,56	3397,42
570,64	3420,02
570,73	3463,19
570,82	3529,40
570,91	3503,64
570,99	3386,80
571,08	3382,74
571,17	3439,23
571,26	3539,57
571,34	3428,16
571,43	3465,90
571,52	3501,15
571,61	3444,20
571,69	3447,82
571,78	3532,34
571,87	3521,94
571,96	3559,00
572,04	3545,67
572,13	3538,21
572,22	3477,87
572,31	3449,17
572,39	3445,11
572,48	3488,04
572,57	3444,88
572,66	3457,54
572,74	3432,23
572,83	3493,02
572,92	3488,95
573,00	3447,37
573,09	3477,87
573,18	3557,19
573,27	3522,85
573,35	3470,19
573,44	3424,32
573,53	3502,05
573,61	3496,63
573,70	3521,94
573,79	3445,56
573,87	3603,52
573,96	3477,87
574,05	3474,26
574,14	3527,59
574,22	3478,10
574,31	3544,54
574,40	3473,35
574,48	3496,86
574,57	3527,36
574,66	3546,80
574,74	3536,40
574,83	3586,80
574,92	3604,65
575,00	3508,38
575,09	3559,00
575,18	3513,58
575,26	3622,96
575,35	3505,90
575,43	3492,79
575,52	3594,26
575,61	3572,79
575,69	3607,14
575,78	3518,78
575,87	3647,59
575,95	3554,71
576,04	3515,16
576,13	3534,82
576,21	3482,62
576,30	3591,54
576,38	3520,36
576,47	3524,43
576,56	3517,87
576,64	3517,20
576,73	3571,43
576,82	3578,21
576,90	3560,36
576,99	3560,58
577,07	3508,16
577,16	3490,08
577,25	3573,24
577,33	3670,64
577,42	3570,75
577,50	3515,39
577,59	3567,14
577,68	3603,07
577,76	3555,61
577,85	3568,72
577,93	3563,75
578,02	3577,08
578,10	3583,86
578,19	3557,42
578,28	3547,70
578,36	3592,00
578,45	3552,00
578,53	3520,13
578,62	3550,42
578,70	3495,95
578,79	3553,80
578,88	3543,86
578,96	3509,74
579,05	3526,69
579,13	3645,78
579,22	3570,30
579,30	3536,40
579,39	3569,85
579,47	3676,51
579,56	3549,29
579,64	3798,32
579,73	3535,05
579,82	3562,84
579,90	3524,43
579,99	3522,17
580,07	3580,92
580,16	3597,65
580,24	3609,17
580,33	3472,68
580,41	3568,72
580,50	3509,29
580,58	3549,29
580,67	3577,99
580,75	3582,28
580,84	3569,62
580,92	3527,59
581,01	3673,35
581,09	3565,33
581,18	3569,62
581,26	3552,90
581,35	3542,05
581,43	3631,32
581,52	3574,14
581,60	3605,55
581,69	3549,74
581,77	3571,21
581,86	3588,38
581,94	3542,28
582,02	3572,11
582,11	3528,49
582,19	3649,85
582,28	3714,48
582,36	3677,42
582,45	3675,61
582,53	3528,95
582,62	3541,15
582,70	3519,46
582,79	3590,41
582,87	3532,79
582,96	3551,55
583,04	3688,49
583,12	3577,99
583,21	3609,85
583,29	3600,36
583,38	3606,01
583,46	3568,49
583,55	3587,25
583,63	3535,73
583,71	3617,08
583,80	3574,60
583,88	3538,44
583,97	3749,05
584,05	3629,96
584,13	3623,86
584,22	3655,72
584,30	3601,49
584,39	3675,38
584,47	3661,82
584,55	3581,83
584,64	3591,54
584,72	3594,71
584,81	3524,65
584,89	3534,82
584,97	3546,57
585,06	3544,31
585,14	3588,38
585,23	3610,07
585,31	3554,71
585,39	3559,45
585,48	3592,22
585,56	3569,40
585,64	3598,78
585,73	3605,10
585,81	3592,45
585,90	3627,25
585,98	3582,28
586,06	3609,17
586,15	3690,52
586,23	3507,93
586,31	3553,35
586,40	3551,32
586,48	3671,32
586,56	3561,94
586,65	3542,96
586,73	3594,26
586,81	3627,48
586,90	3576,18
586,98	3570,08
587,06	3550,64
587,15	3590,87
587,23	3544,09
587,31	3589,51
587,40	3551,09
587,48	3520,36
587,56	3628,38
587,65	3705,44
587,73	3608,72
587,81	3569,40
587,90	3654,37
587,98	3556,29
588,06	3507,25
588,14	3498,89
588,23	3520,36
588,31	3634,25
588,39	3589,96
588,48	3517,65
588,56	3549,74
588,64	3551,32
588,72	3574,14
588,81	3526,01
588,89	3520,13
588,97	3551,32
589,06	3597,42
589,14	3643,29
589,22	3573,01
589,30	3565,10
589,39	3491,66
589,47	3569,40
589,55	3661,37
589,63	3597,19
589,72	3580,47
589,80	3531,43
589,88	3588,15
589,96	3626,12
590,05	3562,17
590,13	3561,71
590,21	3629,28
590,29	3624,54
590,38	3591,09
590,46	3607,59
590,54	3537,31
590,62	3560,58
590,71	3594,71
590,79	3622,05
590,87	3527,36
590,95	3504,99
591,03	3528,04
591,12	3575,73
591,20	3522,62
591,28	3623,86
591,36	3541,38
591,44	3495,50
591,53	3509,51
591,61	3518,55
591,69	3477,20
591,77	3516,07
591,85	3529,62
591,94	3455,95
592,02	3505,44
592,10	3566,01
592,18	3561,26
592,26	3485,78
592,34	3500,92
592,43	3474,71
592,51	3469,97
592,59	3476,29
592,67	3487,82
592,75	3515,84
592,84	3514,94
592,92	3585,67
593,00	3492,56
593,08	3531,21
593,16	3493,02
593,24	3537,31
593,32	3564,43
593,41	3530,98
593,49	3442,62
593,57	3472,68
593,65	3501,15
593,73	3515,16
593,81	3520,36
593,89	3530,75
593,98	3514,03
594,06	3480,81
594,14	3517,20
594,22	3528,27
594,30	3465,45
594,38	3508,38
594,46	3577,08
594,54	3582,50
594,62	3544,09
594,71	3524,43
594,79	3486,46
594,87	3450,53
594,95	3497,76
595,03	3555,39
595,11	3489,40
595,19	3619,79
595,27	3497,08
595,35	3451,21
595,43	3519,91
595,52	3471,32
595,60	3474,26
595,68	3585,44
595,76	3452,11
595,84	3480,59
595,92	3443,75
596,00	3535,27
596,08	3531,66
596,16	3477,42
596,24	3494,82
596,32	3479,91
596,40	3519,23
596,48	3550,42
596,56	3513,58
596,64	3425,67
596,73	3595,84
596,81	3453,47
596,89	3505,90
596,97	3406,24
597,05	3652,11
597,13	3460,70
597,21	3433,81
597,29	3463,41
597,37	3551,77
597,45	3476,07
597,53	3431,55
597,61	3472,68
597,69	3495,73
597,77	3484,20
597,85	3444,43
597,93	3474,48
598,01	3432,00
598,09	3507,03
598,17	3445,11
598,25	3488,04
598,33	3415,05
598,41	3433,58
598,49	3396,97
598,57	3438,78
598,65	3476,52
598,73	3420,48
598,81	3518,33
598,89	3444,88
598,97	3414,37
599,05	3499,34
599,13	3438,55
599,21	3387,71
599,29	3425,45
599,37	3382,74
599,45	3416,63
599,53	3534,37
599,61	3405,11
599,69	3455,95
599,77	3437,88
599,85	3433,58
599,93	3404,88
600,00	3407,14
600,08	3430,87
600,16	3365,79
600,24	3415,50
600,32	3510,42
600,40	3536,18
600,48	3515,84
600,56	3476,52
600,64	3493,47
600,72	3421,38
600,80	3403,75
600,88	3408,50
600,96	3458,89
601,04	3356,30
601,12	3392,00
601,19	3339,57
601,27	3391,10
601,35	3410,76
601,43	3360,82
601,51	3430,19
601,59	3394,94
601,67	3371,44
601,75	3370,53
601,83	3433,81
601,91	3356,07
601,98	3353,81
602,06	3455,73
602,14	3404,43
602,22	3431,77
602,30	3423,19
602,38	3379,35
602,46	3352,23
602,54	3447,37
602,61	3389,52
602,69	3362,62
602,77	3317,88
602,85	3347,48
602,93	3351,32
603,01	3392,68
603,09	3409,63
603,17	3323,53
603,24	3394,04
603,32	3316,75
603,40	3375,50
603,48	3377,31
603,56	3268,39
603,64	3299,12
603,71	3317,43
603,79	3377,09
603,87	3385,00
603,95	3485,56
604,03	3295,05
604,11	3390,65
604,18	3309,29
604,26	3297,99
604,34	3309,29
604,42	3363,08
604,50	3301,16
604,57	3286,02
604,65	3331,89
604,73	3337,31
604,81	3324,66
604,89	3281,72
604,96	3308,61
605,04	3324,88
605,12	3281,27
605,20	3361,49
605,28	3347,48
605,35	3302,29
605,43	3293,47
605,51	3288,28
605,59	3367,14
605,67	3443,30
605,74	3282,40
605,82	3315,85
605,90	3241,04
605,98	3323,98
606,05	3318,56
606,13	3303,64
606,21	3304,55
606,29	3260,93
606,36	3279,46
606,44	3258,45
606,52	3307,03
606,60	3272,46
606,67	3251,44
606,75	3248,05
606,83	3250,76
606,91	3334,83
606,98	3258,45
607,06	3269,74
607,14	3276,52
607,22	3255,73
607,29	3230,88
607,37	3274,04
607,45	3288,50
607,52	3310,20
607,60	3303,19
607,68	3239,01
607,76	3284,43
607,83	3181,61
607,91	3266,13
607,99	3262,97
608,06	3255,96
608,14	3208,28
608,22	3224,10
608,30	3311,55
608,37	3209,63
608,45	3159,92
608,53	3231,55
608,60	3229,29
608,68	3171,44
608,76	3216,86
608,83	3260,03
608,91	3216,19
608,99	3264,09
609,06	3195,85
609,14	3253,70
609,22	3235,62
609,29	3168,28
609,37	3150,88
609,45	3236,30
609,52	3150,20
609,60	3156,75
609,68	3154,04
609,75	3195,40
609,83	3147,26
609,91	3316,52
609,98	3145,68
610,06	3144,78
610,13	3199,46
610,21	3191,55
610,29	3160,82
610,36	3148,84
610,44	3124,89
610,52	3155,85
610,59	3113,59
610,67	3111,33
610,74	3164,21
610,82	3126,25
610,90	3156,75
610,97	3142,29
611,05	3130,77
611,13	3123,31
611,20	3213,70
611,28	3103,87
611,35	3127,83
611,43	3043,08
611,51	3117,88
611,58	3125,79
611,66	3175,51
611,73	3065,68
611,81	3171,44
611,88	3106,81
611,96	3136,41
612,04	3071,56
612,11	3062,29
612,19	3163,76
612,26	3087,15
612,34	3074,72
612,41	3043,08
612,49	3015,06
612,57	2990,66
612,64	3024,78
612,72	3108,62
612,79	3178,00
612,87	3010,54
612,94	2986,14
613,02	3058,90
613,09	3061,61
613,17	3040,15
613,24	3020,94
613,32	3097,09
613,40	2982,75
613,47	3030,43
613,55	2994,27
613,62	3066,36
613,70	3071,56
613,77	2967,38
613,85	3079,24
613,92	3011,67
614,00	2971,67
614,07	2971,00
614,15	2912,69
614,22	2950,66
614,30	2947,27
614,37	2909,53
614,45	2913,82
614,52	2886,70
614,60	2933,26
614,67	2993,59
614,75	2889,19
614,82	2954,72
614,90	2901,62
614,97	2891,22
615,05	3012,35
615,12	2953,59
615,20	2891,90
615,27	2869,76
615,34	2888,96
615,42	2851,45
615,49	2874,50
615,57	2854,39
615,64	2851,00
615,72	2846,03
615,79	2822,52
615,87	2856,87
615,94	2884,44
616,02	2831,11
616,09	2903,88
616,16	2812,13
616,24	2825,46
616,31	2764,67
616,39	2862,98
616,46	2833,37
616,54	2806,25
616,61	2884,90
616,68	2749,53
616,76	2763,77
616,83	2804,22
616,91	2715,41
616,98	2708,40
617,06	2809,64
617,13	2744,56
617,20	2729,19
617,28	2720,38
617,35	2663,66
617,43	2761,51
617,50	2708,40
617,57	2672,47
>>>>>End Processed Spectral Data<<<<<
