SpectraSuite Datei
++++++++++++++++++++++++++++++++++++
Datum: Thu Jan 01 09:07:03 CET 2004
Benutzer: H. Stützler
Dark-Spektrum vorhanden: Nein
Referenz-Spektrum vorhanden: Nein
Zahl der probierten Teilspektren: 1
Spektrometer: USB2+H04734
Integrationszeit (usec): 30000000 (USB2+H04734)
Spektren Durchschnitt berechnet: 10 (USB2+H04734)
Boxcar Glättung: 0 (USB2+H04734)
Dunkelstromkorrektur: Nein (USB2+H04734)
Puls/Lampe aktiviert: Nein (USB2+H04734)
Correct for Detector Non-linearity: Nein (USB2+H04734)
Streulichtkorrektur: Nein (USB2+H04734)
Anzahl Pixel in verarbeitetem Spektrum: 2048
>>>>>Begin Processed Spectral Data<<<<<
418,45	1346,18
418,57	1346,18
418,69	1346,18
418,80	1279,74
418,92	1256,01
419,04	7587,15
419,16	3678,55
419,28	3832,44
419,40	3304,77
419,52	3867,02
419,64	3211,22
419,75	3385,67
419,87	3507,93
419,99	3011,22
420,11	3286,24
420,23	3610,53
420,35	4728,46
420,47	3989,05
420,58	3260,71
420,70	4155,37
420,82	3814,36
420,94	4651,18
421,06	6099,50
421,18	4780,21
421,29	4156,05
421,41	3453,47
421,53	4187,46
421,65	5393,98
421,77	5321,89
421,89	4143,39
422,00	6473,95
422,12	3978,20
422,24	3756,29
422,36	5901,09
422,48	5712,17
422,59	4195,14
422,71	5362,80
422,83	3410,76
422,95	3744,76
423,07	5048,91
423,18	6289,33
423,30	5414,55
423,42	3780,92
423,54	4336,38
423,66	3742,05
423,77	4536,60
423,89	3919,22
424,01	3576,86
424,13	3278,11
424,25	3589,28
424,36	4701,57
424,48	4378,42
424,60	3958,09
424,72	6116,22
424,84	3933,23
424,95	5716,46
425,07	4382,94
425,19	4430,62
425,31	4649,14
425,42	3327,14
425,54	5039,42
425,66	4756,26
425,78	3763,06
425,89	4334,58
426,01	3919,90
426,13	4088,93
426,25	5781,54
426,36	4000,35
426,48	4963,94
426,60	5134,78
426,72	4079,44
426,83	5236,02
426,95	4848,01
427,07	4166,67
427,19	7034,17
427,30	4392,20
427,42	3217,99
427,54	3517,87
427,66	3992,21
427,77	3662,50
427,89	4547,23
428,01	4868,57
428,12	4936,59
428,24	3226,81
428,36	3470,64
428,48	3200,59
428,59	3471,55
428,71	4415,70
428,83	3356,07
428,94	3794,25
429,06	3742,50
429,18	4988,80
429,30	4335,25
429,41	3847,81
429,53	5443,92
429,65	5205,96
429,76	4817,05
429,88	3744,99
430,00	4705,64
430,11	5873,52
430,23	3933,91
430,35	6486,38
430,47	3859,79
430,58	3384,32
430,70	5409,80
430,82	4637,39
430,93	9144,17
431,05	4425,19
431,17	4113,79
431,28	5454,32
431,40	3585,89
431,52	6487,74
431,63	3314,72
431,75	3289,18
431,87	4009,61
431,98	5344,72
432,10	4406,66
432,22	4024,98
432,33	5769,79
432,45	4211,64
432,56	4466,10
432,68	5136,36
432,80	3834,93
432,91	5271,73
433,03	4453,44
433,15	5873,97
433,26	4530,73
433,38	4028,82
433,50	3128,51
433,61	5439,86
433,73	6159,16
433,84	4089,16
433,96	3456,63
434,08	4194,47
434,19	4001,25
434,31	3936,85
434,43	4388,36
434,54	4139,33
434,66	3187,03
434,77	3075,63
434,89	5189,47
435,01	4589,71
435,12	3393,36
435,24	3855,72
435,35	3786,34
435,47	6768,64
435,59	4386,55
435,70	3610,98
435,82	4199,21
435,93	5697,03
436,05	4414,57
436,17	4015,94
436,28	4913,54
436,40	4685,07
436,51	3435,62
436,63	4051,87
436,74	5594,20
436,86	6516,44
436,98	10937,57
437,09	3920,12
437,21	5257,26
437,32	3486,91
437,44	5156,02
437,55	3830,18
437,67	14860,17
437,79	7720,02
437,90	4802,13
438,02	3648,72
438,13	38966,66
438,25	6038,49
438,36	5266,30
438,48	4768,91
438,59	5638,04
438,71	4484,18
438,83	3670,19
438,94	3388,61
439,06	5712,84
439,17	5420,42
439,29	3686,68
439,40	4369,60
439,52	3923,96
439,63	4853,66
439,75	3417,31
439,86	3324,21
439,98	4207,12
440,09	5283,93
440,21	4077,63
440,32	3791,54
440,44	3099,35
440,55	4243,73
440,67	3855,27
440,78	5848,43
440,90	3445,79
441,01	3853,68
441,13	3464,99
441,24	4680,33
441,36	6077,81
441,47	3599,00
441,59	5372,74
441,70	3337,31
441,82	5375,23
441,93	4774,34
442,05	3108,62
442,16	3639,23
442,28	3163,31
442,39	4125,99
442,51	5249,81
442,62	3784,99
442,74	5348,11
442,85	4062,49
442,97	6990,32
443,08	5170,71
443,20	5045,97
443,31	4631,06
443,43	3724,42
443,54	4726,43
443,66	3129,64
443,77	3565,10
443,88	3182,52
444,00	4406,89
444,11	5227,43
444,23	6006,85
444,34	3414,60
444,46	3472,90
444,57	5969,56
444,69	5577,93
444,80	4732,53
444,91	7829,17
445,03	3262,06
445,14	5400,08
445,26	3158,56
445,37	3369,18
445,49	4337,97
445,60	5850,92
445,71	6038,71
445,83	4153,79
445,94	3375,05
446,06	5446,64
446,17	3239,69
446,29	2915,63
446,40	4040,35
446,51	5656,12
446,63	4123,06
446,74	3541,15
446,86	3686,23
446,97	5737,93
447,08	3558,78
447,20	3881,93
447,31	3180,48
447,43	4102,72
447,54	4378,64
447,65	4946,31
447,77	3446,69
447,88	4045,09
448,00	4511,75
448,11	3118,79
448,22	3630,64
448,34	4481,69
448,45	2979,81
448,56	3898,65
448,68	4541,58
448,79	5842,78
448,90	4869,93
449,02	3875,38
449,13	3765,78
449,25	5360,99
449,36	3706,80
449,47	3889,39
449,59	6146,96
449,70	4296,84
449,81	3673,58
449,93	3954,47
450,04	3700,24
450,15	3904,98
450,27	4012,10
450,38	4802,59
450,49	3786,34
450,61	6465,82
450,72	3972,78
450,83	5197,15
450,95	3862,95
451,06	4762,59
451,17	6525,25
451,29	5142,46
451,40	3578,21
451,51	3077,21
451,63	3251,21
451,74	5529,12
451,85	3875,38
451,97	5313,76
452,08	4210,96
452,19	3461,83
452,31	5979,73
452,42	4121,70
452,53	6318,93
452,65	5683,69
452,76	3216,86
452,87	3314,04
452,98	3449,40
453,10	4017,52
453,21	3291,44
453,32	3708,83
453,44	3313,81
453,55	2955,85
453,66	7789,40
453,77	4853,43
453,89	5131,16
454,00	6280,06
454,11	4401,47
454,23	4248,70
454,34	4268,81
454,45	3083,99
454,56	4860,89
454,68	6949,42
454,79	4119,44
454,90	4478,53
455,01	3307,94
455,13	3082,18
455,24	6189,44
455,35	3543,41
455,46	2745,92
455,58	3051,22
455,69	5886,85
455,80	4765,75
455,91	3159,46
456,03	3978,43
456,14	5238,73
456,25	3440,36
456,36	3208,96
456,48	3879,90
456,59	5878,04
456,70	3469,06
456,81	5654,09
456,92	6725,70
457,04	5148,57
457,15	7780,13
457,26	3170,54
457,37	3918,77
457,49	3466,35
457,60	3121,05
457,71	4189,04
457,82	4862,47
457,93	4245,09
458,05	5624,03
458,16	3354,49
458,27	3864,76
458,38	4214,35
458,49	4887,33
458,61	3832,44
458,72	4341,35
458,83	3958,99
458,94	4887,78
459,05	4742,47
459,17	11013,95
459,28	3648,94
459,39	4029,95
459,50	3084,66
459,61	5324,61
459,72	3170,09
459,84	3296,18
459,95	4044,87
460,06	10494,87
460,17	3470,42
460,28	3907,92
460,39	4019,33
460,51	4566,21
460,62	3966,22
460,73	3908,37
460,84	2745,69
460,95	6031,03
461,06	6500,85
461,18	5906,29
461,29	5710,13
461,40	4206,22
461,51	4586,77
461,62	8043,63
461,73	4017,07
461,84	4846,88
461,96	4729,59
462,07	5119,64
462,18	3575,73
462,29	3986,11
462,40	5340,42
462,51	3940,24
462,62	6080,52
462,73	6320,51
462,85	5134,55
462,96	4926,20
463,07	5385,17
463,18	7585,56
463,29	4985,86
463,40	3716,29
463,51	3206,24
463,62	3305,22
463,73	5224,50
463,85	3380,48
463,96	4305,42
464,07	4155,82
464,18	3836,96
464,29	3197,66
464,40	6273,51
464,51	4310,62
464,62	3901,59
464,73	3126,47
464,84	4927,10
464,95	3917,19
465,06	4039,22
465,18	2882,64
465,29	4380,22
465,40	3695,72
465,51	4028,59
465,62	5059,53
465,73	4012,32
465,84	4518,75
465,95	4579,31
466,06	3617,76
466,17	4084,41
466,28	3907,02
466,39	5548,33
466,50	3018,45
466,61	2571,46
466,72	4405,08
466,83	2988,62
466,95	3264,32
467,06	2848,74
467,17	3855,49
467,28	3410,31
467,39	3823,40
467,50	4705,86
467,61	2965,35
467,72	3026,14
467,83	3158,56
467,94	4301,81
468,05	3018,90
468,16	4533,89
468,27	4111,08
468,38	3078,79
468,49	5478,95
468,60	3217,09
468,71	5743,58
468,82	5402,57
468,93	5176,36
469,04	6232,38
469,15	3913,34
469,26	3497,76
469,37	3913,12
469,48	5684,14
469,59	4246,22
469,70	3127,38
469,81	3961,93
469,92	2723,09
470,03	4927,55
470,14	3129,18
470,25	5231,05
470,36	4118,31
470,47	2876,53
470,58	2944,56
470,69	5037,83
470,80	5079,19
470,91	3234,27
471,02	3548,16
471,13	4281,47
471,24	4314,01
471,35	3540,02
471,46	6136,34
471,56	5269,69
471,67	5499,29
471,78	5941,99
471,89	2717,22
472,00	3339,35
472,11	4760,10
472,22	5318,50
472,33	3886,23
472,44	4227,46
472,55	3432,00
472,66	3945,88
472,77	3703,86
472,88	7303,99
472,99	5375,23
473,10	2869,76
473,21	3677,64
473,32	3701,60
473,42	2990,66
473,53	3206,47
473,64	4367,12
473,75	4477,17
473,86	4130,29
473,97	4471,07
474,08	4466,78
474,19	5335,00
474,30	7254,05
474,41	4627,22
474,52	3543,41
474,62	4165,99
474,73	3353,81
474,84	6912,36
474,95	4780,44
475,06	4851,17
475,17	3238,56
475,28	2699,14
475,39	4033,11
475,50	3149,75
475,60	2956,53
475,71	3188,62
475,82	5251,84
475,93	3244,89
476,04	5750,58
476,15	3719,68
476,26	4526,66
476,37	3462,96
476,47	3519,00
476,58	3443,30
476,69	2769,64
476,80	2797,67
476,91	3702,73
477,02	4113,79
477,13	4039,44
477,23	3295,28
477,34	4176,84
477,45	4443,95
477,56	3588,38
477,67	3550,42
477,78	4085,77
477,89	3961,70
477,99	3576,63
478,10	4919,42
478,21	4568,69
478,32	4104,98
478,43	3610,98
478,54	6833,94
478,64	4450,50
478,75	3935,94
478,86	3415,73
478,97	3998,76
479,08	3704,31
479,18	3468,61
479,29	3549,29
479,40	3019,13
479,51	2648,97
479,62	3330,53
479,72	3414,37
479,83	2854,61
479,94	4434,01
480,05	4383,39
480,16	3156,08
480,26	4336,38
480,37	3042,86
480,48	4949,70
480,59	3963,96
480,70	4001,25
480,80	3778,43
480,91	3192,91
481,02	2890,55
481,13	4211,19
481,24	4008,26
481,34	3011,67
481,45	7054,96
481,56	3511,55
481,67	3911,76
481,77	3512,00
481,88	3399,91
481,99	4975,01
482,10	4377,06
482,20	10492,61
482,31	3548,16
482,42	4538,86
482,53	3349,74
482,63	5897,70
482,74	4924,62
482,85	3101,61
482,96	3298,67
483,06	2838,57
483,17	4578,86
483,28	3152,69
483,39	3822,05
483,49	4764,39
483,60	7499,01
483,71	3260,93
483,81	5085,52
483,92	3794,93
484,03	3775,49
484,14	3464,32
484,24	3070,43
484,35	3811,65
484,46	3986,79
484,57	3408,27
484,67	4437,17
484,78	3378,22
484,89	7138,57
484,99	3437,65
485,10	3872,89
485,21	4420,22
485,31	4360,79
485,42	4245,09
485,53	3377,09
485,63	3772,33
485,74	6237,58
485,85	8132,22
485,96	12688,03
486,06	3700,24
486,17	3715,16
486,28	4314,69
486,38	2804,67
486,49	5038,51
486,60	3033,37
486,70	3118,79
486,81	3518,55
486,92	3230,20
487,02	3288,50
487,13	2559,25
487,24	3462,06
487,34	3112,91
487,45	6214,53
487,56	3791,76
487,66	3078,34
487,77	4164,86
487,87	3420,02
487,98	2624,56
488,09	3622,05
488,19	2599,48
488,30	7459,92
488,41	3386,13
488,51	2786,14
488,62	3159,69
488,73	3211,44
488,83	3944,76
488,94	4538,19
489,04	6151,02
489,15	3213,25
489,26	2993,59
489,36	4203,28
489,47	3432,90
489,58	3042,18
489,68	4426,10
489,79	3143,42
489,89	3918,09
490,00	3446,01
490,11	4241,47
490,21	4288,70
490,32	2999,24
490,42	3805,78
490,53	3991,31
490,64	2963,99
490,74	3063,65
490,85	2855,07
490,95	4785,64
491,06	4377,51
491,16	3176,87
491,27	4431,75
491,38	3365,34
491,48	6859,48
491,59	6207,75
491,69	4353,56
491,80	2686,48
491,90	5751,94
492,01	2913,37
492,12	4620,22
492,22	3638,77
492,33	5280,31
492,43	3898,65
492,54	2889,19
492,64	3026,81
492,75	4882,13
492,86	4183,39
492,96	3653,01
493,07	3225,23
493,17	4151,53
493,28	4687,33
493,38	4189,72
493,49	4022,49
493,59	4502,25
493,70	4063,85
493,80	3153,14
493,91	2845,57
494,01	3142,97
494,12	3332,34
494,22	5186,53
494,33	6048,65
494,43	5782,22
494,54	6437,80
494,64	4509,94
494,75	3185,23
494,86	5366,19
494,96	3155,17
495,07	3642,39
495,17	5650,25
495,28	3562,84
495,38	3153,59
495,49	3767,13
495,59	4389,49
495,69	3783,40
495,80	5749,00
495,90	3553,80
496,01	2875,40
496,11	4193,79
496,22	3568,72
496,32	2885,57
496,43	4898,63
496,53	3458,67
496,64	3589,74
496,74	4132,32
496,85	4623,16
496,95	4038,09
497,06	3288,28
497,16	4370,96
497,27	3687,36
497,37	5473,98
497,48	2922,86
497,58	2960,83
497,68	3365,11
497,79	5075,35
497,89	3362,62
498,00	3849,62
498,10	2844,22
498,21	5164,16
498,31	3389,97
498,42	3176,41
498,52	5325,51
498,62	3810,75
498,73	3869,73
498,83	4420,90
498,94	3302,06
499,04	5348,33
499,15	3568,72
499,25	2989,07
499,35	4663,83
499,46	6178,59
499,56	7145,35
499,67	4593,78
499,77	2643,77
499,87	3024,10
499,98	3232,23
500,08	2489,65
500,19	3281,27
500,29	3842,16
500,39	4374,80
500,50	4995,80
500,60	3830,18
500,71	3845,77
500,81	3946,34
500,91	2883,09
501,02	3394,71
501,12	4454,12
501,22	2874,27
501,33	3987,24
501,43	4784,06
501,54	2783,43
501,64	3222,74
501,74	3356,97
501,85	5678,49
501,95	3090,31
502,05	3091,67
502,16	3486,24
502,26	5939,50
502,37	4600,33
502,47	4086,45
502,57	3575,27
502,68	3204,66
502,78	2973,26
502,88	5060,88
502,99	3596,06
503,09	4981,11
503,19	2962,41
503,30	2722,64
503,40	3062,07
503,50	3307,26
503,61	3751,99
503,71	3459,57
503,81	3548,38
503,92	3967,81
504,02	5084,39
504,12	8722,93
504,23	5456,58
504,33	3638,32
504,43	3509,96
504,54	4846,43
504,64	4728,24
504,74	8766,10
504,84	3954,02
504,95	3388,39
505,05	2514,51
505,15	5632,17
505,26	2871,56
505,36	3304,32
505,46	3246,02
505,56	4372,54
505,67	4430,84
505,77	4253,90
505,87	3047,60
505,98	2658,69
506,08	3293,92
506,18	3712,90
506,28	3994,25
506,39	3687,36
506,49	3345,00
506,59	3358,33
506,70	2829,98
506,80	4002,38
506,90	6530,00
507,00	2634,06
507,11	3926,00
507,21	5010,26
507,31	4529,82
507,41	3887,58
507,52	3345,00
507,62	3636,51
507,72	5979,05
507,82	5163,71
507,93	3428,84
508,03	5017,50
508,13	4123,73
508,23	3611,88
508,34	4131,19
508,44	2983,88
508,54	3049,86
508,64	3836,96
508,74	2639,48
508,85	3274,94
508,95	3652,79
509,05	2777,33
509,15	3451,21
509,26	4240,34
509,36	3007,38
509,46	3935,94
509,56	2841,96
509,66	3715,38
509,77	3044,67
509,87	3365,79
509,97	3642,16
510,07	3879,45
510,17	2533,72
510,28	7527,49
510,38	4927,33
510,48	3335,51
510,58	4323,05
510,68	3926,45
510,78	3801,48
510,89	3279,24
510,99	2650,33
511,09	4812,53
511,19	4556,49
511,29	2819,81
511,39	5080,09
511,50	5296,81
511,60	2821,39
511,70	4606,43
511,80	4868,57
511,90	5231,05
512,00	3662,95
512,11	3039,02
512,21	3940,46
512,31	2761,96
512,41	5873,52
512,51	4006,67
512,61	7116,88
512,71	3183,65
512,82	3238,11
512,92	2467,51
513,02	4312,88
513,12	3449,17
513,22	3196,07
513,32	4819,31
513,42	4061,14
513,53	5121,22
513,63	4359,21
513,73	4717,39
513,83	2832,24
513,93	4304,97
514,03	4526,43
514,13	5847,76
514,23	3063,87
514,33	3436,75
514,44	3455,95
514,54	3331,44
514,64	6422,43
514,74	3471,10
514,84	3380,93
514,94	4735,02
515,04	4613,21
515,14	4022,95
515,24	4291,64
515,34	4030,18
515,44	2516,54
515,55	2473,61
515,65	4435,82
515,75	3183,42
515,85	3433,81
515,95	4508,36
516,05	5642,34
516,15	4201,92
516,25	2880,60
516,35	3096,19
516,45	3180,93
516,55	3134,15
516,65	3593,13
516,75	6818,13
516,85	4443,95
516,95	4850,04
517,05	5292,52
517,16	2871,56
517,26	7725,22
517,36	3241,95
517,46	2681,06
517,56	4087,80
517,66	3573,01
517,76	3217,32
517,86	3198,56
517,96	4334,12
518,06	2948,17
518,16	3052,35
518,26	4208,48
518,36	2935,06
518,46	3293,70
518,56	4687,11
518,66	5016,82
518,76	3798,54
518,86	4949,47
518,96	3001,50
519,06	3224,10
519,16	4326,44
519,26	3413,70
519,36	4338,19
519,46	3932,10
519,56	5659,06
519,66	6836,66
519,76	3175,74
519,86	3260,93
519,96	4018,88
520,06	3596,97
520,16	6339,95
520,26	4071,31
520,36	3302,29
520,46	3327,82
520,56	3226,81
520,66	3475,16
520,76	3190,88
520,86	3523,07
520,96	5433,76
521,06	4416,38
521,16	3001,73
521,26	3598,10
521,35	4432,88
521,45	2818,23
521,55	3406,92
521,65	4448,70
521,75	3337,31
521,85	2591,80
521,95	3747,70
522,05	2733,94
522,15	4575,70
522,25	24189,87
522,35	5245,29
522,45	3496,63
522,55	4890,04
522,65	3857,30
522,75	3083,99
522,85	3318,33
522,94	3564,43
523,04	4587,68
523,14	4059,10
523,24	2974,61
523,34	3184,32
523,44	4031,08
523,54	3217,09
523,64	3063,20
523,74	5937,47
523,84	4656,60
523,94	4341,58
524,03	2882,18
524,13	4171,19
524,23	4280,11
524,33	3015,29
524,43	3618,89
524,53	3765,55
524,63	3191,33
524,73	3483,30
524,83	2828,85
524,92	3467,25
525,02	2819,81
525,12	4738,86
525,22	3747,25
525,32	2904,78
525,42	5156,02
525,52	3787,02
525,61	4237,63
525,71	2559,71
525,81	4107,01
525,91	2867,72
526,01	3858,20
526,11	3955,83
526,21	4695,47
526,30	4125,99
526,40	3195,17
526,50	4122,38
526,60	4682,36
526,70	4607,56
526,80	4423,39
526,89	3450,98
526,99	3028,62
527,09	3931,20
527,19	3912,89
527,29	4675,58
527,39	3651,66
527,48	4248,02
527,58	4156,73
527,68	2778,68
527,78	5370,03
527,88	6826,04
527,97	3710,64
528,07	2974,61
528,17	5060,21
528,27	5336,58
528,37	3589,96
528,46	3023,88
528,56	6139,50
528,66	4620,90
528,76	2745,24
528,86	4930,49
528,95	2958,57
529,05	3876,28
529,15	3917,19
529,25	4790,83
529,35	4895,24
529,44	4559,65
529,54	5683,69
529,64	4429,71
529,74	3529,62
529,83	2932,13
529,93	3368,72
530,03	4245,54
530,13	3854,36
530,22	5422,68
530,32	5227,66
530,42	4768,24
530,52	2475,42
530,61	4863,15
530,71	2803,09
530,81	4830,16
530,91	3590,64
531,00	3469,97
531,10	3389,06
531,20	4242,37
531,30	3540,92
531,39	3783,63
531,49	3612,33
531,59	8487,01
531,69	6533,61
531,78	5280,09
531,88	6585,82
531,98	6948,74
532,07	5359,63
532,17	6267,41
532,27	6700,39
532,37	4699,99
532,46	4746,09
532,56	4213,00
532,66	2894,16
532,75	3668,60
532,85	3958,54
532,95	3698,66
533,04	3650,53
533,14	4084,41
533,24	4580,67
533,34	3316,52
533,43	4624,96
533,53	2593,60
533,63	4316,27
533,72	3499,57
533,82	2976,42
533,92	2934,16
534,01	7852,45
534,11	8654,69
534,21	4518,07
534,30	3435,62
534,40	3661,82
534,50	2668,40
534,59	3302,96
534,69	2987,49
534,79	3954,47
534,88	5696,35
534,98	5062,69
535,08	2431,12
535,17	4632,65
535,27	3452,34
535,36	3091,22
535,46	4277,18
535,56	2802,19
535,65	4336,84
535,75	4933,66
535,85	4038,31
535,94	3265,45
536,04	3662,73
536,14	4622,03
536,23	5754,88
536,33	3277,43
536,42	3992,21
536,52	3471,55
536,62	2596,54
536,71	4160,34
536,81	3788,15
536,90	3791,54
537,00	3968,48
537,10	3121,05
537,19	3856,17
537,29	4431,97
537,38	5212,52
537,48	3737,98
537,58	3740,01
537,67	3045,12
537,77	3447,14
537,86	3268,61
537,96	5392,17
538,06	3551,55
538,15	2961,50
538,25	6510,34
538,34	7285,46
538,44	6593,95
538,53	4455,70
538,63	5479,86
538,73	4696,37
538,82	3799,22
538,92	3592,90
539,01	6812,70
539,11	2920,60
539,20	7302,86
539,30	4553,55
539,39	3421,15
539,49	4650,05
539,59	4844,62
539,68	7807,48
539,78	7655,17
539,87	4942,47
539,97	5161,67
540,06	5181,33
540,16	3541,83
540,25	4972,52
540,35	6535,42
540,44	5133,20
540,54	6771,57
540,63	4645,08
540,73	3901,82
540,82	5207,77
540,92	3814,14
541,01	5878,72
541,11	6189,67
541,20	4730,72
541,30	4763,72
541,39	5375,68
541,49	4850,27
541,58	6830,33
541,68	6518,02
541,77	4937,05
541,87	3543,18
541,96	3444,88
542,06	5741,77
542,15	6729,99
542,25	7020,38
542,34	5679,17
542,44	3914,02
542,53	4443,27
542,63	5074,44
542,72	4040,12
542,82	4016,62
542,91	4643,49
543,01	3899,56
543,10	5639,40
543,20	4567,11
543,29	4988,34
543,38	3841,03
543,48	4420,22
543,57	4101,36
543,67	4055,26
543,76	4352,88
543,86	4214,13
543,95	5229,02
544,05	7250,66
544,14	8325,66
544,23	4720,10
544,33	4094,58
544,42	5426,75
544,52	4216,39
544,61	4812,98
544,71	6842,31
544,80	7555,51
544,89	6764,57
544,99	5199,64
545,08	6453,16
545,18	3579,34
545,27	8541,92
545,36	6871,68
545,46	5616,80
545,55	4444,63
545,65	4806,43
545,74	4260,23
545,84	3624,09
545,93	4902,24
546,02	4404,63
546,12	6024,47
546,21	5806,63
546,30	5032,86
546,40	5214,78
546,49	4004,19
546,59	5196,93
546,68	4235,82
546,77	6077,81
546,87	5111,73
546,96	6101,99
547,05	5285,96
547,15	3990,86
547,24	4723,27
547,34	4041,02
547,43	4818,63
547,52	6266,50
547,62	5316,92
547,71	5701,77
547,80	5557,14
547,90	4583,83
547,99	7370,88
548,08	5220,88
548,18	3327,82
548,27	3837,19
548,36	3721,03
548,46	4051,19
548,55	3978,65
548,64	4909,93
548,74	3814,59
548,83	4851,85
548,92	7293,14
549,02	3925,55
549,11	8538,76
549,20	5589,23
549,30	4275,37
549,39	4856,60
549,48	5135,01
549,58	3591,77
549,67	5351,95
549,76	4742,93
549,85	3561,04
549,95	4444,40
550,04	5690,47
550,13	3529,17
550,23	5473,53
550,32	3861,82
550,41	3707,47
550,50	5051,39
550,60	7028,97
550,69	4567,11
550,78	3387,26
550,88	5800,30
550,97	5526,63
551,06	4488,70
551,15	4665,19
551,25	6831,91
551,34	3649,85
551,43	4344,29
551,52	5117,15
551,62	6027,86
551,71	6148,31
551,80	5879,17
551,89	4939,53
551,99	4397,40
552,08	4582,25
552,17	4031,53
552,26	5230,37
552,36	3346,13
552,45	3515,84
552,54	3356,97
552,63	5309,46
552,73	7595,96
552,82	7313,48
552,91	4898,40
553,00	9020,10
553,10	4829,03
553,19	7470,76
553,28	4282,15
553,37	5088,91
553,46	3692,56
553,56	5844,37
553,65	3803,97
553,74	3558,55
553,83	5194,44
553,92	4474,91
554,02	4999,64
554,11	4368,47
554,20	3593,58
554,29	7190,55
554,38	4182,49
554,48	4469,49
554,57	3991,08
554,66	4149,72
554,75	5412,29
554,84	5535,67
554,94	5047,78
555,03	3987,69
555,12	3456,41
555,21	3602,62
555,30	7663,53
555,39	3734,14
555,49	4040,35
555,58	5134,33
555,67	5673,98
555,76	6182,66
555,85	3678,10
555,94	3588,61
556,03	4286,89
556,13	4621,57
556,22	4397,40
556,31	4771,40
556,40	3320,36
556,49	5983,80
556,58	4507,45
556,67	4470,62
556,77	4138,65
556,86	6762,08
556,95	5583,81
557,04	7102,64
557,13	7355,51
557,22	6449,32
557,31	5052,52
557,40	4521,46
557,50	6867,39
557,59	3791,31
557,68	3872,67
557,77	6331,36
557,86	4952,41
557,95	4763,04
558,04	4516,27
558,13	4741,57
558,22	5019,76
558,31	4300,45
558,41	3448,95
558,50	5581,77
558,59	5806,63
558,68	6263,56
558,77	5878,26
558,86	3400,36
558,95	3260,71
559,04	4916,25
559,13	6390,11
559,22	3863,18
559,31	4276,72
559,40	3702,73
559,49	3964,87
559,59	5730,24
559,68	3259,80
559,77	6785,81
559,86	7660,82
559,95	4779,99
560,04	4417,28
560,13	5139,98
560,22	8092,67
560,31	5099,53
560,40	4981,34
560,49	3293,70
560,58	4033,11
560,67	3517,65
560,76	3524,20
560,85	3091,44
560,94	6311,92
561,03	3836,74
561,12	9871,38
561,21	8543,05
561,30	4540,22
561,39	4398,08
561,48	4642,82
561,57	3317,88
561,66	5394,21
561,75	7353,03
561,84	4092,77
561,93	4141,81
562,02	4364,86
562,11	3477,42
562,20	3719,00
562,29	4598,52
562,38	3026,14
562,47	5822,90
562,56	4877,16
562,65	3930,29
562,74	4292,09
562,83	9598,62
562,92	5203,48
563,01	6851,57
563,10	3484,43
563,19	4697,28
563,28	10461,42
563,37	6256,56
563,46	3443,75
563,55	4076,28
563,64	9411,96
563,73	3505,90
563,82	5200,09
563,91	7359,35
564,00	4533,89
564,09	3515,84
564,18	4739,08
564,27	3237,20
564,35	5192,18
564,44	4537,73
564,53	5813,63
564,62	5627,42
564,71	4953,32
564,80	5039,64
564,89	5310,82
564,98	55121,49
565,07	6003,01
565,16	3571,88
565,25	13328,24
565,34	4098,42
565,43	4162,15
565,51	3727,36
565,60	7045,24
565,69	3952,66
565,78	7271,22
565,87	2961,05
565,96	2722,64
566,05	5405,28
566,14	6666,72
566,23	5171,39
566,32	7059,02
566,40	5964,36
566,49	7066,48
566,58	3918,77
566,67	4535,93
566,76	3634,93
566,85	3940,01
566,94	4737,50
567,03	5459,52
567,11	4217,52
567,20	4329,38
567,29	6605,25
567,38	5419,52
567,47	3321,95
567,56	4599,65
567,65	4763,26
567,73	3441,49
567,82	3457,08
567,91	5163,03
568,00	4505,87
568,09	5771,60
568,18	3740,92
568,27	4352,43
568,35	4785,41
568,44	5698,83
568,53	5050,26
568,62	3553,80
568,71	3442,85
568,80	3890,07
568,88	5826,29
568,97	6828,30
569,06	3374,60
569,15	3978,20
569,24	5242,35
569,32	5499,97
569,41	4615,70
569,50	3322,85
569,59	3119,24
569,68	3391,32
569,76	4506,77
569,85	5344,04
569,94	6243,68
570,03	3682,39
570,12	5476,92
570,20	4608,47
570,29	5243,25
570,38	5092,07
570,47	5065,18
570,56	3183,19
570,64	4045,77
570,73	4292,99
570,82	6919,37
570,91	5866,29
570,99	3400,14
571,08	3213,70
571,17	3784,99
571,26	6317,57
571,34	3829,50
571,43	4886,20
571,52	5260,88
571,61	3464,99
571,69	3332,34
571,78	5652,28
571,87	6235,09
571,96	5967,07
572,04	5756,68
572,13	5797,14
572,22	3592,00
572,31	3288,73
572,39	3583,41
572,48	4774,11
572,57	4037,86
572,66	3668,38
572,74	3039,92
572,83	5078,06
572,92	4016,17
573,00	3291,44
573,09	5312,63
573,18	5896,12
573,27	5438,50
573,35	3679,00
573,44	3258,45
573,53	4359,43
573,61	4372,99
573,70	4983,82
573,79	3615,05
573,87	7709,40
573,96	3747,92
574,05	4276,95
574,14	4257,74
574,22	3715,38
574,31	5628,33
574,40	3190,65
574,48	4437,17
574,57	4672,65
574,66	4117,63
574,74	4277,18
574,83	5823,58
574,92	6261,98
575,00	4097,29
575,09	6069,44
575,18	3867,24
575,26	6889,76
575,35	4229,72
575,43	4022,27
575,52	5541,32
575,61	5125,51
575,69	5758,49
575,78	3771,20
575,87	7910,98
575,95	5231,05
576,04	3716,96
576,13	4900,21
576,21	3964,19
576,30	5073,99
576,38	4819,76
576,47	4047,35
576,56	3917,64
576,64	4312,88
576,73	5804,14
576,82	5437,82
576,90	4684,40
576,99	4724,17
577,07	4031,08
577,16	4288,25
577,25	5273,53
577,33	8246,56
577,42	4776,82
577,50	3815,94
577,59	5238,05
577,68	6422,20
577,76	4548,13
577,85	4393,78
577,93	4856,60
578,02	4987,67
578,10	4743,38
578,19	4816,82
578,28	4150,85
578,36	4451,63
578,45	4701,12
578,53	3511,32
578,62	3929,39
578,70	3736,62
578,79	4370,51
578,88	4624,74
578,96	3631,77
579,05	3726,00
579,13	7642,96
579,22	5200,09
579,30	4175,94
579,39	5361,89
579,47	7198,91
579,56	4097,97
579,64	12183,63
579,73	4451,86
579,82	5283,02
579,90	3764,42
579,99	3952,66
580,07	5248,68
580,16	4783,83
580,24	5830,81
580,33	3147,26
580,41	4814,34
580,50	3501,38
580,58	4505,42
580,67	4237,85
580,75	4566,43
580,84	4479,20
580,92	3551,77
581,01	7374,50
581,09	3773,01
581,18	4304,07
581,26	3831,76
581,35	3396,07
581,43	5896,79
581,52	4528,92
581,60	5145,85
581,69	4537,73
581,77	4991,96
581,86	5131,39
581,94	4417,28
582,02	4992,86
582,11	3500,02
582,19	6824,23
582,28	8183,51
582,36	7760,47
582,45	7863,97
582,53	3984,08
582,62	4087,35
582,70	3849,39
582,79	5366,19
582,87	3778,88
582,96	5234,21
583,04	6975,86
583,12	5101,79
583,21	4945,41
583,29	5229,47
583,38	5247,77
583,46	4504,51
583,55	4905,18
583,63	3617,98
583,71	5344,49
583,80	4785,41
583,88	3530,30
583,97	8882,03
584,05	5342,68
584,13	5914,42
584,22	5656,57
584,30	4177,29
584,39	5669,00
584,47	6108,31
584,55	3858,43
584,64	4930,94
584,72	5108,57
584,81	4101,14
584,89	3778,21
584,97	3656,40
585,06	3618,44
585,14	4535,70
585,23	4990,38
585,31	3265,68
585,39	4216,84
585,48	4862,92
585,56	3357,65
585,64	5104,05
585,73	4582,93
585,81	4493,44
585,90	5614,99
585,98	4084,64
586,06	4295,03
586,15	6762,53
586,23	3287,15
586,31	3822,05
586,40	3441,94
586,48	6332,71
586,56	3755,38
586,65	3759,68
586,73	3631,77
586,81	5280,54
586,90	4159,66
586,98	3146,81
587,06	3186,58
587,15	4139,33
587,23	4072,89
587,31	4374,80
587,40	3719,68
587,48	3400,81
587,56	6155,77
587,65	8745,08
587,73	5532,51
587,81	4920,77
587,90	7496,30
587,98	4554,23
588,06	3683,07
588,14	3596,29
588,23	3970,97
588,31	6665,81
588,39	5443,02
588,48	4277,85
588,56	3713,57
588,64	5043,94
588,72	4745,86
588,81	3952,89
588,89	4261,81
588,97	4494,80
589,06	6347,63
589,14	6175,66
589,22	4822,70
589,30	4191,75
589,39	3726,91
589,47	5483,02
589,55	7143,54
589,63	4788,35
589,72	4014,81
589,80	3871,31
589,88	5141,56
589,96	5800,07
590,05	4623,38
590,13	4750,84
590,21	5988,77
590,29	6686,83
590,38	5501,32
590,46	6277,58
590,54	3403,07
590,62	3749,28
590,71	5904,93
590,79	6396,67
590,87	3266,13
590,95	3550,64
591,03	4176,16
591,12	4777,95
591,20	3996,05
591,28	7289,30
591,36	5116,02
591,44	4208,93
591,53	4463,39
591,61	4361,69
591,69	3668,15
591,77	4690,27
591,85	4630,84
591,94	3660,24
592,02	3936,39
592,10	5657,93
592,18	5628,10
592,26	4420,22
592,34	3451,21
592,43	3100,94
592,51	3288,28
592,59	3730,07
592,67	5425,39
592,75	3824,98
592,84	4307,68
592,92	5875,10
593,00	3949,73
593,08	4016,39
593,16	3427,48
593,24	3833,57
593,32	5462,00
593,41	4601,69
593,49	3262,29
593,57	3762,16
593,65	3673,80
593,73	4891,40
593,81	5062,01
593,89	5837,81
593,98	4204,86
594,06	3522,85
594,14	3562,39
594,22	3808,94
594,30	3808,04
594,38	4161,02
594,46	5844,82
594,54	5734,31
594,62	5453,19
594,71	4212,54
594,79	3772,33
594,87	4262,49
594,95	4299,32
595,03	5892,05
595,11	4392,65
595,19	6943,77
595,27	4256,39
595,35	3749,28
595,43	3671,77
595,52	3920,35
595,60	4025,66
595,68	7585,79
595,76	3453,47
595,84	5217,94
595,92	3537,31
596,00	6408,42
596,08	5844,14
596,16	4588,81
596,24	4275,37
596,32	3979,78
596,40	5145,85
596,48	5102,01
596,56	5085,74
596,64	3467,03
596,73	6438,25
596,81	3793,35
596,89	4842,13
596,97	3143,87
597,05	9688,33
597,13	4136,39
597,21	3237,20
597,29	4085,54
597,37	6160,29
597,45	5028,79
597,53	3720,58
597,61	4649,60
597,69	5348,33
597,77	4193,79
597,85	3839,45
597,93	4506,32
598,01	4087,80
598,09	5537,03
598,17	4313,56
598,25	4556,26
598,33	3253,25
598,41	3971,87
598,49	3241,72
598,57	3617,31
598,65	4141,13
598,73	4404,18
598,81	4780,21
598,89	4217,06
598,97	3433,58
599,05	6289,55
599,13	4046,00
599,21	3536,40
599,29	4499,77
599,37	4092,55
599,45	3734,82
599,53	6700,16
599,61	3736,85
599,69	4937,27
599,77	4173,68
599,85	3613,01
599,93	3924,64
600,00	3375,50
600,08	5099,75
600,16	3059,13
600,24	3366,01
600,32	6693,16
600,40	7248,85
600,48	6236,67
600,56	5867,42
600,64	5850,92
600,72	4243,28
600,80	4428,36
600,88	4199,44
600,96	6013,18
601,04	3372,79
601,12	3679,45
601,19	2931,45
601,27	3821,37
601,35	4332,99
601,43	3612,11
601,51	4636,04
601,59	3643,75
601,67	3335,73
601,75	3760,81
601,83	4468,36
601,91	3114,27
601,98	3358,33
602,06	5770,92
602,14	4619,54
602,22	4915,35
602,30	5466,97
602,38	4561,69
602,46	3411,44
602,54	5878,49
602,61	4963,94
602,69	4717,16
602,77	3124,21
602,85	3403,30
602,93	3434,26
603,01	4341,13
603,09	5847,53
603,17	3870,63
603,24	4873,32
603,32	3181,39
603,40	4373,90
603,48	5069,47
603,56	3056,42
603,64	4357,17
603,71	3434,94
603,79	4188,59
603,87	5334,55
603,95	8204,98
604,03	4078,08
604,11	5728,89
604,18	4711,97
604,26	3604,42
604,34	3147,71
604,42	4552,87
604,50	3462,96
604,57	3474,71
604,65	4039,44
604,73	4154,24
604,81	4505,87
604,89	3413,02
604,96	3932,55
605,04	4920,55
605,12	3911,76
605,20	5314,66
605,28	6282,32
605,35	4398,98
605,43	4528,47
605,51	3867,02
605,59	5426,75
605,67	7433,93
605,74	4093,45
605,82	4360,11
605,90	3369,40
605,98	5076,48
606,05	4228,36
606,13	5076,25
606,21	4397,17
606,29	4021,36
606,36	4235,37
606,44	3581,60
606,52	4383,84
606,60	4017,75
606,67	3044,67
606,75	3691,65
606,83	2839,25
606,91	5448,22
606,98	3417,31
607,06	4220,91
607,14	4110,63
607,22	4413,44
607,29	3577,76
607,37	4260,68
607,45	4851,40
607,52	5240,31
607,60	5141,79
607,68	4097,75
607,76	4835,81
607,83	2875,63
607,91	4912,87
607,99	4701,35
608,06	4620,67
608,14	3789,05
608,22	4116,05
608,30	6118,26
608,37	3320,36
608,45	2729,42
608,53	4422,26
608,60	4498,19
608,68	3477,42
608,76	3823,40
608,83	5159,41
608,91	3283,08
608,99	5184,50
609,06	4530,50
609,14	4995,80
609,22	4002,83
609,29	3464,54
609,37	3023,65
609,45	5566,63
609,52	3364,21
609,60	3349,97
609,68	3514,26
609,75	4164,86
609,83	2814,84
609,91	7154,84
609,98	3832,89
610,06	3633,58
610,13	4861,34
610,21	4332,77
610,29	4286,21
610,36	2940,26
610,44	3560,81
610,52	4128,25
610,59	3235,40
610,67	3137,77
610,74	4076,05
610,82	3367,14
610,90	4628,13
610,97	3737,30
611,05	4796,94
611,13	4375,25
611,20	6416,33
611,28	3411,89
611,35	4031,98
611,43	2871,56
611,51	4639,88
611,58	4361,92
611,66	6152,38
611,73	3313,13
611,81	5968,88
611,88	4559,43
611,96	5180,43
612,04	3281,72
612,11	3202,85
612,19	6497,46
612,26	3759,90
612,34	4198,76
612,41	3924,19
612,49	2790,66
612,57	2875,63
612,64	3192,01
612,72	5972,27
612,79	7244,33
612,87	2903,43
612,94	2771,90
613,02	4219,78
613,09	3899,33
613,17	4780,67
613,24	3683,07
613,32	5242,12
613,40	3603,97
613,47	3866,79
613,55	3100,94
613,62	5519,85
613,70	5748,55
613,77	3410,08
613,85	5408,90
613,92	3831,09
614,00	3051,67
614,07	3595,61
614,15	2740,27
614,22	3065,91
614,30	4476,27
614,37	3015,74
614,45	3615,50
614,52	3283,98
614,60	3697,08
614,67	5007,55
614,75	2773,03
614,82	4782,02
614,90	3466,35
614,97	3069,98
615,05	6306,05
615,12	5205,74
615,20	4123,73
615,27	4062,27
615,34	3941,82
615,42	3148,17
615,49	3951,53
615,57	2920,15
615,64	3196,07
615,72	3424,32
615,79	3416,41
615,87	4500,22
615,94	5659,06
616,02	4260,68
616,09	5549,91
616,16	4472,65
616,24	4057,75
616,31	3056,64
616,39	6969,31
616,46	5501,78
616,54	4267,91
616,61	6497,23
616,68	3126,02
616,76	3833,12
616,83	4613,21
616,91	3434,94
616,98	3190,88
617,06	5380,42
617,13	3290,76
617,20	3506,12
617,28	3986,56
617,35	3071,56
617,43	5602,11
617,50	3487,82
617,57	3820,46
>>>>>End Processed Spectral Data<<<<<
