SpectraSuite Datei
++++++++++++++++++++++++++++++++++++
Datum: Sun Jan 04 03:34:12 CET 2004
Benutzer: Student
Dark-Spektrum vorhanden: Nein
Referenz-Spektrum vorhanden: Nein
Zahl der probierten Teilspektren: 1
Spektrometer: USB2+H04734
Integrationszeit (usec): 100000 (USB2+H04734)
Spektren Durchschnitt berechnet: 100 (USB2+H04734)
Boxcar Glättung: 0 (USB2+H04734)
Dunkelstromkorrektur: Nein (USB2+H04734)
Puls/Lampe aktiviert: Nein (USB2+H04734)
Correct for Detector Non-linearity: Nein (USB2+H04734)
Streulichtkorrektur: Nein (USB2+H04734)
Anzahl Pixel in verarbeitetem Spektrum: 2048
>>>>>Begin Processed Spectral Data<<<<<
418,45	1236,65
418,57	1236,65
418,69	1236,65
418,80	1150,46
418,92	1137,46
419,04	1145,78
419,16	1119,27
419,28	1112,35
419,40	1102,30
419,52	1114,59
419,64	1108,56
419,75	1115,61
419,87	1120,72
419,99	1128,78
420,11	1131,70
420,23	1142,14
420,35	1154,57
420,47	1161,46
420,58	1169,69
420,70	1177,64
420,82	1185,35
420,94	1210,25
421,06	1214,36
421,18	1221,03
421,29	1229,35
421,41	1232,24
421,53	1248,19
421,65	1262,72
421,77	1264,55
421,89	1266,38
422,00	1278,70
422,12	1278,59
422,24	1280,94
422,36	1296,30
422,48	1293,57
422,59	1292,42
422,71	1304,55
422,83	1296,06
422,95	1293,91
423,07	1306,72
423,18	1316,69
423,30	1308,12
423,42	1300,73
423,54	1309,86
423,66	1304,17
423,77	1305,64
423,89	1305,39
424,01	1299,22
424,13	1303,22
424,25	1298,47
424,36	1296,17
424,48	1297,68
424,60	1297,32
424,72	1303,56
424,84	1298,41
424,95	1298,90
425,07	1298,43
425,19	1300,35
425,31	1295,08
425,42	1295,17
425,54	1291,90
425,66	1289,64
425,78	1288,51
425,89	1297,59
426,01	1289,89
426,13	1295,67
426,25	1294,14
426,36	1290,54
426,48	1289,68
426,60	1297,53
426,72	1289,71
426,83	1293,39
426,95	1287,92
427,07	1291,31
427,19	1299,11
427,30	1290,02
427,42	1279,20
427,54	1286,81
427,66	1289,95
427,77	1285,91
427,89	1297,30
428,01	1295,67
428,12	1289,10
428,24	1283,38
428,36	1288,92
428,48	1283,47
428,59	1284,96
428,71	1290,86
428,83	1290,70
428,94	1290,43
429,06	1288,40
429,18	1289,75
429,30	1292,89
429,41	1289,16
429,53	1298,86
429,65	1296,44
429,76	1294,00
429,88	1283,18
430,00	1296,28
430,11	1300,42
430,23	1290,52
430,35	1295,47
430,47	1288,78
430,58	1290,23
430,70	1292,44
430,82	1291,08
430,93	1307,69
431,05	1295,72
431,17	1295,85
431,28	1293,75
431,40	1291,65
431,52	1300,12
431,63	1287,63
431,75	1289,01
431,87	1299,20
431,98	1301,73
432,10	1292,73
432,22	1294,00
432,33	1294,63
432,45	1291,47
432,56	1292,17
432,68	1296,19
432,80	1291,13
432,91	1295,72
433,03	1298,29
433,15	1295,63
433,26	1292,28
433,38	1287,31
433,50	1286,16
433,61	1298,68
433,73	1298,72
433,84	1293,53
433,96	1289,53
434,08	1292,06
434,19	1290,41
434,31	1289,82
434,43	1295,33
434,54	1301,73
434,66	1292,03
434,77	1289,03
434,89	1296,06
435,01	1296,64
435,12	1295,90
435,24	1292,69
435,35	1285,50
435,47	1304,40
435,59	1294,41
435,70	1287,42
435,82	1294,36
435,93	1301,07
436,05	1295,72
436,17	1294,36
436,28	1297,46
436,40	1299,11
436,51	1289,53
436,63	1292,76
436,74	1295,69
436,86	1302,43
436,98	1318,56
437,09	1294,41
437,21	1292,35
437,32	1285,59
437,44	1295,85
437,55	1292,26
437,67	1327,67
437,79	1309,37
437,90	1298,84
438,02	1294,88
438,13	1378,02
438,25	1300,53
438,36	1301,53
438,48	1300,37
438,59	1293,84
438,71	1291,40
438,83	1295,20
438,94	1299,31
439,06	1301,66
439,17	1300,30
439,29	1292,78
439,40	1297,46
439,52	1299,67
439,63	1297,03
439,75	1291,54
439,86	1291,08
439,98	1293,66
440,09	1303,94
440,21	1292,24
440,32	1298,93
440,44	1293,32
440,55	1296,21
440,67	1295,65
440,78	1298,45
440,90	1290,25
441,01	1290,68
441,13	1294,11
441,24	1291,31
441,36	1304,30
441,47	1293,86
441,59	1303,65
441,70	1287,94
441,82	1300,60
441,93	1295,79
442,05	1289,28
442,16	1296,94
442,28	1290,02
442,39	1298,61
442,51	1295,92
442,62	1288,96
442,74	1298,38
442,85	1290,32
442,97	1309,66
443,08	1300,17
443,20	1301,12
443,31	1302,86
443,43	1299,74
443,54	1301,41
443,66	1299,49
443,77	1291,13
443,88	1292,78
444,00	1296,89
444,11	1301,46
444,23	1305,52
444,34	1290,32
444,46	1286,05
444,57	1304,01
444,69	1305,91
444,80	1307,65
444,91	1307,31
445,03	1292,80
445,14	1303,76
445,26	1292,94
445,37	1292,58
445,49	1297,16
445,60	1305,62
445,71	1303,47
445,83	1301,07
445,94	1296,01
446,06	1299,58
446,17	1301,10
446,29	1293,12
446,40	1297,75
446,51	1303,11
446,63	1294,20
446,74	1291,74
446,86	1287,72
446,97	1299,22
447,08	1291,79
447,20	1295,22
447,31	1297,82
447,43	1295,90
447,54	1297,34
447,65	1305,62
447,77	1299,76
447,88	1301,98
448,00	1301,37
448,11	1296,51
448,22	1295,79
448,34	1298,99
448,45	1302,95
448,56	1304,21
448,68	1301,80
448,79	1301,98
448,90	1300,51
449,02	1300,58
449,13	1298,56
449,25	1297,57
449,36	1296,53
449,47	1295,67
449,59	1307,63
449,70	1298,34
449,81	1302,11
449,93	1295,85
450,04	1295,47
450,15	1298,25
450,27	1303,60
450,38	1300,62
450,49	1295,51
450,61	1311,38
450,72	1295,88
450,83	1302,25
450,95	1296,98
451,06	1298,36
451,17	1314,93
451,29	1303,11
451,40	1304,03
451,51	1296,12
451,63	1290,77
451,74	1305,16
451,85	1294,11
451,97	1307,11
452,08	1305,07
452,19	1299,02
452,31	1304,58
452,42	1297,37
452,53	1302,75
452,65	1299,83
452,76	1299,49
452,87	1294,11
452,98	1295,97
453,10	1296,12
453,21	1298,90
453,32	1301,86
453,44	1298,86
453,55	1292,62
453,66	1313,21
453,77	1307,45
453,89	1301,34
454,00	1307,94
454,11	1309,01
454,23	1291,42
454,34	1307,67
454,45	1296,64
454,56	1304,49
454,68	1310,72
454,79	1302,29
454,90	1297,95
455,01	1292,80
455,13	1297,95
455,24	1305,57
455,35	1298,47
455,46	1288,67
455,58	1295,36
455,69	1306,79
455,80	1303,29
455,91	1292,46
456,03	1299,11
456,14	1304,24
456,25	1297,89
456,36	1299,63
456,48	1308,30
456,59	1303,08
456,70	1297,77
456,81	1304,58
456,92	1313,23
457,04	1300,53
457,15	1311,11
457,26	1304,01
457,37	1296,94
457,49	1299,69
457,60	1301,21
457,71	1301,23
457,82	1300,49
457,93	1300,98
458,05	1305,23
458,16	1297,82
458,27	1297,77
458,38	1304,87
458,49	1296,80
458,61	1301,03
458,72	1303,60
458,83	1297,75
458,94	1306,63
459,05	1301,32
459,17	1320,82
459,28	1297,91
459,39	1296,40
459,50	1299,08
459,61	1304,91
459,72	1303,78
459,84	1295,13
459,95	1303,88
460,06	1323,51
460,17	1298,88
460,28	1293,10
460,39	1297,89
460,51	1303,15
460,62	1292,96
460,73	1295,11
460,84	1294,88
460,95	1311,58
461,06	1307,15
461,18	1302,16
461,29	1302,66
461,40	1298,20
461,51	1306,45
461,62	1308,39
461,73	1293,03
461,84	1304,03
461,96	1302,99
462,07	1305,23
462,18	1297,30
462,29	1299,13
462,40	1298,61
462,51	1299,22
462,62	1309,50
462,73	1310,59
462,85	1302,18
462,96	1298,54
463,07	1302,97
463,18	1310,86
463,29	1299,27
463,40	1292,85
463,51	1294,23
463,62	1291,65
463,73	1306,29
463,85	1297,84
463,96	1295,81
464,07	1303,47
464,18	1294,97
464,29	1298,41
464,40	1311,11
464,51	1298,47
464,62	1308,67
464,73	1296,76
464,84	1305,91
464,95	1301,82
465,06	1293,14
465,18	1297,98
465,29	1297,32
465,40	1296,12
465,51	1303,56
465,62	1303,60
465,73	1297,64
465,84	1296,62
465,95	1296,62
466,06	1303,58
466,17	1299,63
466,28	1302,77
466,39	1307,99
466,50	1294,11
466,61	1295,40
466,72	1302,72
466,83	1296,15
466,95	1300,03
467,06	1293,82
467,17	1299,58
467,28	1298,93
467,39	1301,14
467,50	1301,10
467,61	1290,02
467,72	1291,27
467,83	1300,64
467,94	1302,34
468,05	1299,65
468,16	1306,95
468,27	1298,07
468,38	1293,05
468,49	1306,27
468,60	1299,04
468,71	1305,98
468,82	1305,75
468,93	1301,57
469,04	1312,60
469,15	1297,39
469,26	1298,66
469,37	1297,64
469,48	1304,33
469,59	1302,70
469,70	1292,98
469,81	1304,73
469,92	1300,01
470,03	1306,59
470,14	1300,19
470,25	1303,04
470,36	1310,47
470,47	1290,45
470,58	1296,64
470,69	1308,49
470,80	1305,82
470,91	1301,39
471,02	1297,30
471,13	1299,20
471,24	1300,15
471,35	1301,53
471,46	1311,38
471,56	1306,25
471,67	1303,27
471,78	1301,05
471,89	1301,55
472,00	1292,92
472,11	1303,54
472,22	1307,36
472,33	1300,85
472,44	1298,99
472,55	1304,01
472,66	1297,19
472,77	1299,72
472,88	1313,52
472,99	1309,14
473,10	1297,48
473,21	1296,89
473,32	1297,03
473,42	1299,31
473,53	1296,06
473,64	1298,93
473,75	1303,22
473,86	1307,83
473,97	1300,78
474,08	1299,17
474,19	1298,88
474,30	1316,94
474,41	1305,48
474,52	1296,28
474,62	1301,89
474,73	1300,80
474,84	1311,99
474,95	1298,54
475,06	1300,46
475,17	1297,86
475,28	1296,01
475,39	1295,83
475,50	1301,23
475,60	1300,03
475,71	1301,10
475,82	1308,87
475,93	1298,63
476,04	1304,69
476,15	1289,77
476,26	1299,47
476,37	1297,77
476,47	1298,93
476,58	1297,93
476,69	1295,15
476,80	1294,72
476,91	1298,04
477,02	1300,53
477,13	1297,77
477,23	1295,83
477,34	1299,56
477,45	1305,10
477,56	1301,37
477,67	1297,57
477,78	1293,71
477,89	1298,93
477,99	1297,41
478,10	1300,10
478,21	1298,11
478,32	1301,62
478,43	1297,32
478,54	1309,73
478,64	1304,44
478,75	1301,73
478,86	1296,76
478,97	1305,39
479,08	1296,35
479,18	1296,37
479,29	1294,72
479,40	1298,47
479,51	1291,58
479,62	1300,78
479,72	1299,69
479,83	1298,75
479,94	1307,76
480,05	1298,93
480,16	1299,02
480,26	1300,55
480,37	1298,84
480,48	1303,83
480,59	1298,75
480,70	1301,12
480,80	1308,10
480,91	1297,30
481,02	1297,25
481,13	1297,57
481,24	1300,46
481,34	1297,28
481,45	1313,71
481,56	1303,31
481,67	1306,16
481,77	1298,70
481,88	1293,80
481,99	1302,86
482,10	1303,63
482,20	1331,02
482,31	1298,47
482,42	1303,08
482,53	1296,53
482,63	1306,43
482,74	1303,51
482,85	1298,99
482,96	1292,51
483,06	1294,86
483,17	1301,21
483,28	1292,55
483,39	1299,15
483,49	1305,25
483,60	1311,11
483,71	1301,57
483,81	1301,03
483,92	1304,44
484,03	1300,17
484,14	1297,80
484,24	1297,19
484,35	1299,88
484,46	1300,12
484,57	1296,80
484,67	1303,78
484,78	1298,14
484,89	1312,08
484,99	1302,70
485,10	1297,66
485,21	1298,66
485,31	1303,08
485,42	1302,88
485,53	1300,49
485,63	1296,15
485,74	1314,36
485,85	1313,73
485,96	1365,64
486,06	1312,78
486,17	1296,82
486,28	1295,04
486,38	1290,20
486,49	1300,17
486,60	1298,88
486,70	1297,98
486,81	1299,13
486,92	1302,66
487,02	1297,84
487,13	1292,26
487,24	1296,89
487,34	1298,61
487,45	1310,90
487,56	1294,70
487,66	1291,36
487,77	1298,59
487,87	1296,60
487,98	1299,94
488,09	1304,91
488,19	1294,20
488,30	1316,80
488,41	1299,24
488,51	1293,07
488,62	1300,49
488,73	1298,00
488,83	1304,30
488,94	1297,66
489,04	1309,57
489,15	1297,80
489,26	1297,28
489,36	1299,94
489,47	1300,46
489,58	1301,66
489,68	1307,36
489,79	1300,12
489,89	1308,21
490,00	1301,05
490,11	1301,84
490,21	1299,51
490,32	1298,77
490,42	1301,23
490,53	1300,17
490,64	1293,89
490,74	1299,85
490,85	1298,41
490,95	1300,76
491,06	1303,15
491,16	1301,55
491,27	1307,90
491,38	1303,90
491,48	1309,71
491,59	1309,55
491,69	1302,00
491,80	1291,24
491,90	1310,14
492,01	1298,63
492,12	1302,02
492,22	1299,20
492,33	1305,03
492,43	1301,77
492,54	1297,55
492,64	1291,33
492,75	1307,99
492,86	1301,75
492,96	1305,93
493,07	1303,56
493,17	1296,10
493,28	1306,43
493,38	1298,02
493,49	1299,74
493,59	1302,61
493,70	1298,59
493,80	1305,57
493,91	1294,16
494,01	1297,14
494,12	1297,57
494,22	1303,40
494,33	1306,93
494,43	1304,94
494,54	1313,64
494,64	1295,65
494,75	1298,47
494,86	1305,03
494,96	1298,66
495,07	1299,99
495,17	1306,36
495,28	1297,41
495,38	1297,23
495,49	1306,43
495,59	1297,73
495,69	1300,80
495,80	1308,42
495,90	1306,54
496,01	1298,07
496,11	1300,17
496,22	1299,76
496,32	1296,06
496,43	1305,10
496,53	1293,05
496,64	1301,39
496,74	1298,68
496,85	1305,57
496,95	1293,71
497,06	1299,83
497,16	1303,97
497,27	1296,21
497,37	1308,03
497,48	1296,12
497,58	1300,96
497,68	1302,93
497,79	1308,91
497,89	1301,37
498,00	1298,52
498,10	1294,81
498,21	1304,64
498,31	1297,89
498,42	1298,70
498,52	1306,77
498,62	1302,14
498,73	1298,14
498,83	1304,64
498,94	1294,79
499,04	1308,96
499,15	1298,93
499,25	1298,99
499,35	1303,33
499,46	1304,30
499,56	1308,35
499,67	1299,63
499,77	1286,99
499,87	1287,04
499,98	1300,12
500,08	1289,19
500,19	1299,45
500,29	1299,67
500,39	1303,88
500,50	1302,77
500,60	1302,88
500,71	1295,08
500,81	1304,85
500,91	1294,23
501,02	1294,25
501,12	1301,62
501,22	1302,04
501,33	1301,73
501,43	1305,19
501,54	1288,80
501,64	1294,93
501,74	1294,63
501,85	1313,52
501,95	1307,85
502,05	1298,23
502,16	1299,33
502,26	1310,43
502,37	1306,36
502,47	1295,45
502,57	1298,04
502,68	1295,63
502,78	1296,03
502,88	1304,62
502,99	1299,74
503,09	1303,63
503,19	1301,86
503,30	1299,49
503,40	1299,20
503,50	1301,64
503,61	1301,34
503,71	1306,84
503,81	1300,26
503,92	1300,26
504,02	1303,33
504,12	1317,10
504,23	1309,01
504,33	1295,99
504,43	1296,94
504,54	1303,76
504,64	1306,32
504,74	1311,76
504,84	1305,01
504,95	1301,05
505,05	1300,17
505,15	1312,69
505,26	1301,57
505,36	1298,75
505,46	1296,96
505,56	1299,38
505,67	1296,76
505,77	1303,78
505,87	1296,80
505,98	1292,58
506,08	1296,89
506,18	1299,38
506,28	1298,99
506,39	1298,34
506,49	1295,29
506,59	1301,03
506,70	1298,63
506,80	1301,12
506,90	1303,65
507,00	1293,80
507,11	1293,71
507,21	1299,69
507,31	1302,27
507,41	1292,69
507,52	1297,98
507,62	1302,14
507,72	1300,62
507,82	1300,76
507,93	1297,16
508,03	1301,98
508,13	1300,40
508,23	1294,81
508,34	1299,06
508,44	1298,38
508,54	1294,97
508,64	1293,91
508,74	1295,88
508,85	1304,53
508,95	1297,86
509,05	1300,24
509,15	1304,28
509,26	1300,91
509,36	1303,27
509,46	1302,45
509,56	1298,61
509,66	1300,98
509,77	1293,98
509,87	1298,72
509,97	1304,17
510,07	1299,27
510,17	1300,37
510,28	1314,27
510,38	1308,39
510,48	1302,75
510,58	1302,43
510,68	1301,05
510,78	1303,56
510,89	1295,11
510,99	1289,46
511,09	1302,79
511,19	1297,66
511,29	1295,99
511,39	1303,04
511,50	1310,07
511,60	1298,11
511,70	1303,17
511,80	1303,49
511,90	1306,72
512,00	1301,48
512,11	1301,91
512,21	1305,68
512,31	1296,49
512,41	1307,81
512,51	1302,81
512,61	1316,64
512,71	1295,15
512,82	1300,87
512,92	1299,97
513,02	1304,60
513,12	1297,73
513,22	1302,14
513,32	1307,74
513,42	1297,10
513,53	1307,63
513,63	1302,47
513,73	1308,69
513,83	1298,07
513,93	1300,89
514,03	1305,80
514,13	1309,28
514,23	1298,77
514,33	1301,16
514,44	1296,55
514,54	1299,31
514,64	1306,23
514,74	1303,78
514,84	1302,07
514,94	1306,25
515,04	1306,81
515,14	1303,40
515,24	1300,42
515,34	1302,54
515,44	1297,98
515,55	1292,94
515,65	1300,89
515,75	1295,45
515,85	1291,15
515,95	1301,10
516,05	1305,73
516,15	1298,50
516,25	1297,25
516,35	1296,85
516,45	1300,19
516,55	1298,25
516,65	1295,65
516,75	1317,00
516,85	1300,21
516,95	1307,78
517,05	1304,49
517,16	1298,84
517,26	1308,37
517,36	1299,56
517,46	1304,06
517,56	1302,97
517,66	1295,20
517,76	1294,41
517,86	1301,48
517,96	1305,23
518,06	1299,17
518,16	1296,69
518,26	1304,76
518,36	1296,53
518,46	1301,57
518,56	1306,45
518,66	1307,88
518,76	1301,93
518,86	1302,56
518,96	1293,73
519,06	1298,07
519,16	1301,68
519,26	1297,91
519,36	1301,19
519,46	1299,29
519,56	1308,85
519,66	1315,69
519,76	1298,41
519,86	1292,40
519,96	1302,07
520,06	1298,14
520,16	1307,54
520,26	1303,11
520,36	1303,27
520,46	1298,75
520,56	1294,34
520,66	1298,68
520,76	1297,30
520,86	1301,10
520,96	1303,40
521,06	1299,40
521,16	1298,50
521,26	1302,75
521,35	1302,63
521,45	1295,27
521,55	1294,66
521,65	1301,53
521,75	1300,08
521,85	1292,24
521,95	1298,90
522,05	1293,05
522,15	1296,62
522,25	1329,75
522,35	1302,16
522,45	1297,91
522,55	1307,29
522,65	1296,06
522,75	1297,77
522,85	1296,67
522,94	1293,48
523,04	1302,11
523,14	1299,54
523,24	1299,83
523,34	1299,74
523,44	1301,19
523,54	1294,32
523,64	1296,10
523,74	1311,40
523,84	1303,06
523,94	1298,54
524,03	1295,29
524,13	1300,33
524,23	1305,75
524,33	1293,84
524,43	1298,86
524,53	1296,80
524,63	1296,94
524,73	1297,46
524,83	1288,98
524,92	1298,16
525,02	1293,30
525,12	1305,50
525,22	1302,84
525,32	1299,63
525,42	1306,20
525,52	1302,72
525,61	1299,40
525,71	1297,46
525,81	1300,37
525,91	1296,24
526,01	1302,66
526,11	1303,45
526,21	1306,52
526,30	1300,55
526,40	1298,79
526,50	1299,36
526,60	1307,85
526,70	1304,26
526,80	1304,69
526,89	1300,96
526,99	1297,66
527,09	1302,25
527,19	1299,08
527,29	1306,29
527,39	1298,34
527,48	1298,97
527,58	1299,42
527,68	1294,16
527,78	1298,61
527,88	1314,32
527,97	1294,84
528,07	1301,01
528,17	1310,07
528,27	1306,16
528,37	1294,90
528,46	1294,29
528,56	1303,90
528,66	1303,08
528,76	1291,38
528,86	1298,88
528,95	1298,59
529,05	1304,78
529,15	1297,55
529,25	1307,40
529,35	1311,97
529,44	1306,65
529,54	1303,29
529,64	1300,53
529,74	1297,39
529,83	1307,17
529,93	1299,72
530,03	1301,25
530,13	1298,86
530,22	1305,93
530,32	1303,85
530,42	1301,30
530,52	1294,11
530,61	1302,72
530,71	1295,94
530,81	1304,03
530,91	1298,93
531,00	1294,79
531,10	1297,34
531,20	1305,57
531,30	1297,73
531,39	1301,23
531,49	1299,20
531,59	1322,56
531,69	1307,58
531,78	1306,72
531,88	1305,57
531,98	1303,85
532,07	1295,04
532,17	1300,51
532,27	1305,62
532,37	1303,76
532,46	1298,41
532,56	1306,18
532,66	1297,64
532,75	1304,24
532,85	1302,59
532,95	1296,01
533,04	1307,20
533,14	1301,01
533,24	1302,90
533,34	1295,15
533,43	1297,93
533,53	1295,22
533,63	1300,73
533,72	1305,28
533,82	1298,14
533,92	1298,86
534,01	1316,35
534,11	1318,45
534,21	1302,79
534,30	1293,89
534,40	1293,21
534,50	1293,10
534,59	1293,05
534,69	1295,02
534,79	1295,67
534,88	1304,82
534,98	1298,11
535,08	1295,13
535,17	1309,28
535,27	1304,03
535,36	1295,72
535,46	1304,51
535,56	1294,68
535,65	1304,26
535,75	1300,17
535,85	1298,36
535,94	1299,83
536,04	1297,32
536,14	1307,24
536,23	1306,25
536,33	1299,99
536,42	1300,28
536,52	1297,93
536,62	1293,19
536,71	1304,15
536,81	1297,89
536,90	1302,04
537,00	1303,51
537,10	1293,66
537,19	1299,13
537,29	1307,36
537,38	1302,93
537,48	1297,41
537,58	1297,39
537,67	1302,88
537,77	1297,75
537,86	1293,50
537,96	1311,38
538,06	1301,05
538,15	1289,39
538,25	1309,86
538,34	1310,14
538,44	1309,80
538,53	1307,69
538,63	1310,32
538,73	1301,68
538,82	1296,55
538,92	1297,84
539,01	1306,99
539,11	1293,30
539,20	1314,45
539,30	1301,12
539,39	1301,62
539,49	1300,10
539,59	1302,59
539,68	1313,46
539,78	1320,58
539,87	1301,71
539,97	1302,16
540,06	1302,43
540,16	1291,33
540,25	1302,86
540,35	1309,39
540,44	1301,23
540,54	1311,63
540,63	1305,77
540,73	1297,93
540,82	1306,11
540,92	1301,41
541,01	1294,56
541,11	1312,01
541,20	1301,19
541,30	1299,45
541,39	1306,88
541,49	1305,01
541,58	1307,04
541,68	1308,49
541,77	1305,41
541,87	1301,93
541,96	1295,29
542,06	1308,58
542,15	1309,30
542,25	1310,99
542,34	1305,28
542,44	1295,24
542,53	1301,73
542,63	1298,72
542,72	1293,68
542,82	1296,89
542,91	1301,28
543,01	1298,34
543,10	1303,81
543,20	1299,67
543,29	1302,61
543,38	1295,97
543,48	1300,26
543,57	1294,63
543,67	1296,08
543,76	1303,56
543,86	1305,46
543,95	1297,80
544,05	1313,10
544,14	1305,64
544,23	1306,90
544,33	1295,45
544,42	1308,28
544,52	1294,77
544,61	1303,17
544,71	1307,94
544,80	1312,01
544,89	1309,66
544,99	1305,62
545,08	1305,16
545,18	1299,38
545,27	1309,19
545,36	1306,70
545,46	1306,27
545,55	1295,45
545,65	1304,58
545,74	1297,80
545,84	1295,74
545,93	1301,21
546,02	1297,57
546,12	1301,89
546,21	1292,55
546,30	1309,73
546,40	1301,41
546,49	1294,56
546,59	1295,94
546,68	1297,66
546,77	1301,89
546,87	1302,43
546,96	1305,71
547,05	1304,62
547,15	1296,87
547,24	1308,46
547,34	1302,81
547,43	1299,58
547,52	1307,33
547,62	1302,66
547,71	1305,34
547,80	1307,27
547,90	1300,91
547,99	1316,51
548,08	1305,77
548,18	1294,23
548,27	1297,89
548,36	1299,51
548,46	1298,86
548,55	1302,04
548,64	1301,55
548,74	1294,27
548,83	1297,32
548,92	1312,73
549,02	1294,16
549,11	1314,99
549,20	1307,06
549,30	1292,78
549,39	1301,75
549,48	1301,32
549,58	1294,00
549,67	1307,36
549,76	1305,12
549,85	1298,25
549,95	1301,95
550,04	1304,69
550,13	1294,59
550,23	1305,41
550,32	1292,78
550,41	1299,33
550,50	1303,99
550,60	1314,63
550,69	1297,73
550,78	1296,08
550,88	1307,76
550,97	1306,00
551,06	1304,78
551,15	1301,75
551,25	1305,43
551,34	1295,49
551,43	1298,41
551,52	1300,87
551,62	1306,52
551,71	1305,82
551,80	1306,95
551,89	1301,48
551,99	1298,11
552,08	1300,85
552,17	1299,69
552,26	1307,04
552,36	1290,77
552,45	1292,78
552,54	1296,08
552,63	1304,78
552,73	1309,43
552,82	1313,30
552,91	1301,10
553,00	1315,51
553,10	1306,11
553,19	1308,12
553,28	1297,75
553,37	1309,71
553,46	1304,98
553,56	1314,68
553,65	1300,49
553,74	1291,99
553,83	1305,64
553,92	1301,77
554,02	1294,54
554,11	1301,57
554,20	1299,42
554,29	1311,08
554,38	1296,69
554,48	1300,06
554,57	1295,56
554,66	1297,55
554,75	1303,97
554,84	1301,43
554,94	1301,82
555,03	1300,80
555,12	1296,96
555,21	1298,90
555,30	1317,50
555,39	1296,80
555,49	1297,98
555,58	1297,98
555,67	1303,06
555,76	1310,09
555,85	1295,51
555,94	1297,55
556,03	1302,63
556,13	1299,67
556,22	1300,15
556,31	1300,51
556,40	1292,73
556,49	1302,38
556,58	1298,29
556,67	1299,36
556,77	1296,42
556,86	1306,61
556,95	1311,06
557,04	1305,71
557,13	1309,32
557,22	1310,56
557,31	1297,05
557,40	1297,14
557,50	1306,61
557,59	1297,64
557,68	1296,76
557,77	1308,98
557,86	1304,24
557,95	1294,56
558,04	1303,49
558,13	1296,15
558,22	1298,79
558,31	1302,90
558,41	1298,36
558,50	1301,75
558,59	1303,27
558,68	1305,50
558,77	1308,24
558,86	1301,05
558,95	1300,82
559,04	1307,74
559,13	1302,97
559,22	1296,51
559,31	1298,77
559,40	1303,08
559,49	1300,40
559,59	1305,10
559,68	1301,57
559,77	1309,25
559,86	1313,14
559,95	1307,04
560,04	1299,04
560,13	1305,66
560,22	1313,68
560,31	1303,15
560,40	1300,58
560,49	1298,63
560,58	1301,01
560,67	1296,06
560,76	1294,63
560,85	1298,00
560,94	1303,85
561,03	1301,68
561,12	1320,78
561,21	1314,43
561,30	1303,13
561,39	1302,09
561,48	1298,50
561,57	1298,77
561,66	1303,76
561,75	1316,89
561,84	1298,52
561,93	1297,71
562,02	1304,98
562,11	1298,68
562,20	1297,39
562,29	1304,55
562,38	1291,18
562,47	1306,36
562,56	1302,81
562,65	1298,54
562,74	1302,45
562,83	1314,97
562,92	1299,08
563,01	1310,63
563,10	1296,94
563,19	1301,03
563,28	1321,52
563,37	1311,11
563,46	1299,60
563,55	1306,27
563,64	1318,95
563,73	1301,93
563,82	1304,08
563,91	1312,28
564,00	1296,73
564,09	1296,78
564,18	1299,17
564,27	1300,64
564,35	1303,76
564,44	1303,65
564,53	1306,36
564,62	1302,02
564,71	1296,82
564,80	1306,07
564,89	1304,12
564,98	1447,71
565,07	1309,14
565,16	1305,52
565,25	1334,95
565,34	1301,01
565,43	1304,24
565,51	1297,59
565,60	1309,95
565,69	1308,08
565,78	1309,71
565,87	1298,84
565,96	1294,59
566,05	1304,94
566,14	1311,04
566,23	1303,42
566,32	1310,16
566,40	1308,58
566,49	1316,82
566,58	1300,69
566,67	1305,34
566,76	1298,45
566,85	1306,38
566,94	1300,19
567,03	1302,32
567,11	1298,79
567,20	1301,19
567,29	1307,81
567,38	1303,92
567,47	1302,72
567,56	1303,90
567,65	1298,61
567,73	1298,93
567,82	1300,46
567,91	1305,03
568,00	1298,52
568,09	1311,74
568,18	1303,99
568,27	1301,57
568,35	1308,60
568,44	1305,48
568,53	1301,12
568,62	1300,24
568,71	1301,30
568,80	1292,35
568,88	1308,12
568,97	1308,98
569,06	1301,71
569,15	1292,82
569,24	1302,93
569,32	1313,86
569,41	1302,00
569,50	1298,68
569,59	1297,30
569,68	1290,38
569,76	1302,07
569,85	1304,91
569,94	1306,95
570,03	1298,95
570,12	1299,92
570,20	1302,61
570,29	1308,96
570,38	1303,45
570,47	1300,03
570,56	1296,01
570,64	1294,63
570,73	1299,56
570,82	1305,25
570,91	1305,57
570,99	1300,35
571,08	1299,85
571,17	1301,46
571,26	1309,64
571,34	1307,13
571,43	1300,30
571,52	1305,16
571,61	1297,39
571,69	1296,85
571,78	1309,05
571,87	1303,76
571,96	1304,46
572,04	1307,76
572,13	1307,60
572,22	1301,48
572,31	1296,92
572,39	1292,60
572,48	1297,39
572,57	1294,16
572,66	1296,15
572,74	1299,13
572,83	1304,46
572,92	1299,65
573,00	1302,20
573,09	1313,21
573,18	1303,02
573,27	1302,04
573,35	1302,34
573,44	1294,93
573,53	1302,93
573,61	1304,30
573,70	1301,75
573,79	1302,04
573,87	1312,82
573,96	1298,84
574,05	1298,25
574,14	1297,73
574,22	1302,25
574,31	1304,35
574,40	1297,53
574,48	1302,86
574,57	1300,85
574,66	1297,80
574,74	1299,20
574,83	1314,38
574,92	1308,26
575,00	1306,09
575,09	1308,17
575,18	1299,69
575,26	1311,04
575,35	1300,35
575,43	1302,50
575,52	1307,20
575,61	1300,62
575,69	1302,41
575,78	1300,89
575,87	1313,21
575,95	1302,70
576,04	1294,52
576,13	1305,46
576,21	1298,79
576,30	1306,09
576,38	1298,38
576,47	1297,89
576,56	1304,06
576,64	1302,04
576,73	1307,67
576,82	1302,70
576,90	1303,33
576,99	1303,40
577,07	1300,51
577,16	1311,31
577,25	1307,54
577,33	1315,04
577,42	1298,02
577,50	1298,77
577,59	1304,51
577,68	1309,19
577,76	1301,57
577,85	1306,86
577,93	1304,58
578,02	1303,90
578,10	1300,94
578,19	1303,42
578,28	1298,88
578,36	1306,04
578,45	1301,14
578,53	1296,69
578,62	1300,24
578,70	1296,62
578,79	1301,16
578,88	1303,78
578,96	1294,32
579,05	1298,56
579,13	1304,78
579,22	1302,47
579,30	1302,61
579,39	1300,80
579,47	1312,53
579,56	1300,64
579,64	1326,95
579,73	1303,94
579,82	1301,30
579,90	1303,06
579,99	1294,75
580,07	1302,29
580,16	1302,56
580,24	1303,40
580,33	1299,11
580,41	1301,25
580,50	1299,69
580,58	1296,44
580,67	1302,77
580,75	1302,41
580,84	1296,89
580,92	1292,55
581,01	1311,60
581,09	1303,22
581,18	1299,04
581,26	1297,82
581,35	1297,77
581,43	1303,56
581,52	1302,95
581,60	1303,20
581,69	1299,79
581,77	1303,60
581,86	1306,72
581,94	1295,76
582,02	1310,77
582,11	1299,38
582,19	1308,49
582,28	1311,29
582,36	1307,31
582,45	1310,11
582,53	1297,41
582,62	1294,54
582,70	1300,49
582,79	1305,41
582,87	1297,23
582,96	1299,54
583,04	1311,81
583,12	1305,03
583,21	1306,11
583,29	1306,07
583,38	1306,04
583,46	1305,10
583,55	1297,80
583,63	1297,05
583,71	1303,72
583,80	1308,51
583,88	1299,15
583,97	1316,19
584,05	1306,65
584,13	1305,91
584,22	1303,54
584,30	1300,30
584,39	1304,28
584,47	1307,29
584,55	1299,15
584,64	1304,69
584,72	1298,14
584,81	1300,98
584,89	1299,31
584,97	1302,34
585,06	1295,20
585,14	1305,21
585,23	1303,24
585,31	1301,25
585,39	1298,20
585,48	1305,62
585,56	1297,73
585,64	1303,08
585,73	1301,16
585,81	1309,14
585,90	1302,81
585,98	1297,10
586,06	1300,89
586,15	1301,34
586,23	1297,10
586,31	1295,58
586,40	1302,18
586,48	1305,98
586,56	1303,49
586,65	1303,51
586,73	1292,31
586,81	1302,34
586,90	1294,23
586,98	1295,69
587,06	1296,67
587,15	1302,97
587,23	1299,20
587,31	1307,42
587,40	1301,86
587,48	1301,82
587,56	1308,17
587,65	1311,17
587,73	1310,63
587,81	1305,07
587,90	1310,68
587,98	1298,63
588,06	1297,28
588,14	1292,89
588,23	1302,52
588,31	1308,82
588,39	1307,17
588,48	1305,71
588,56	1299,67
588,64	1300,37
588,72	1302,36
588,81	1300,21
588,89	1299,11
588,97	1305,50
589,06	1309,59
589,14	1305,46
589,22	1311,40
589,30	1304,10
589,39	1302,02
589,47	1307,04
589,55	1313,01
589,63	1303,97
589,72	1297,37
589,80	1300,44
589,88	1305,19
589,96	1304,24
590,05	1299,99
590,13	1304,58
590,21	1307,45
590,29	1304,17
590,38	1305,03
590,46	1310,36
590,54	1298,72
590,62	1296,06
590,71	1304,03
590,79	1305,03
590,87	1296,01
590,95	1302,04
591,03	1303,90
591,12	1298,86
591,20	1302,68
591,28	1313,34
591,36	1298,54
591,44	1303,29
591,53	1299,72
591,61	1295,83
591,69	1299,20
591,77	1297,41
591,85	1302,27
591,94	1296,53
592,02	1296,33
592,10	1304,08
592,18	1305,57
592,26	1304,37
592,34	1292,33
592,43	1301,59
592,51	1292,21
592,59	1299,29
592,67	1295,40
592,75	1299,72
592,84	1302,54
592,92	1307,27
593,00	1302,43
593,08	1304,06
593,16	1299,74
593,24	1299,72
593,32	1303,78
593,41	1301,66
593,49	1293,28
593,57	1297,71
593,65	1304,21
593,73	1302,66
593,81	1306,90
593,89	1308,26
593,98	1302,52
594,06	1301,03
594,14	1304,26
594,22	1302,00
594,30	1300,10
594,38	1303,11
594,46	1306,14
594,54	1306,88
594,62	1304,67
594,71	1301,48
594,79	1295,08
594,87	1295,31
594,95	1309,34
595,03	1303,83
595,11	1304,64
595,19	1305,52
595,27	1298,29
595,35	1299,38
595,43	1301,30
595,52	1299,92
595,60	1297,10
595,68	1318,25
595,76	1294,36
595,84	1299,47
595,92	1294,41
596,00	1305,75
596,08	1307,54
596,16	1297,41
596,24	1297,66
596,32	1303,99
596,40	1309,62
596,48	1303,90
596,56	1309,32
596,64	1298,38
596,73	1304,53
596,81	1296,28
596,89	1304,35
596,97	1295,17
597,05	1320,80
597,13	1298,25
597,21	1297,66
597,29	1300,49
597,37	1311,83
597,45	1305,93
597,53	1303,47
597,61	1299,31
597,69	1297,62
597,77	1305,19
597,85	1301,30
597,93	1302,34
598,01	1297,23
598,09	1307,38
598,17	1293,28
598,25	1304,58
598,33	1299,79
598,41	1297,55
598,49	1295,24
598,57	1299,38
598,65	1294,63
598,73	1302,79
598,81	1304,64
598,89	1305,30
598,97	1299,69
599,05	1303,81
599,13	1303,76
599,21	1299,15
599,29	1307,45
599,37	1292,46
599,45	1297,28
599,53	1310,97
599,61	1303,04
599,69	1299,65
599,77	1301,89
599,85	1297,82
599,93	1300,06
600,00	1294,52
600,08	1300,08
600,16	1296,24
600,24	1294,95
600,32	1312,26
600,40	1310,84
600,48	1308,64
600,56	1307,60
600,64	1304,33
600,72	1306,29
600,80	1308,82
600,88	1296,40
600,96	1307,63
601,04	1293,03
601,12	1290,70
601,19	1298,41
601,27	1295,74
601,35	1302,20
601,43	1300,53
601,51	1303,76
601,59	1302,25
601,67	1293,34
601,75	1299,04
601,83	1299,06
601,91	1293,59
601,98	1296,51
602,06	1304,80
602,14	1297,71
602,22	1302,95
602,30	1302,84
602,38	1298,88
602,46	1293,62
602,54	1309,82
602,61	1303,22
602,69	1302,59
602,77	1297,10
602,85	1297,73
602,93	1302,70
603,01	1303,42
603,09	1307,72
603,17	1300,33
603,24	1307,94
603,32	1294,29
603,40	1299,11
603,48	1302,36
603,56	1299,67
603,64	1300,55
603,71	1298,50
603,79	1298,00
603,87	1301,46
603,95	1319,04
604,03	1298,68
604,11	1309,98
604,18	1303,60
604,26	1298,95
604,34	1295,24
604,42	1301,14
604,50	1299,31
604,57	1301,84
604,65	1308,78
604,73	1302,11
604,81	1303,31
604,89	1299,17
604,96	1295,42
605,04	1306,56
605,12	1299,40
605,20	1308,10
605,28	1305,25
605,35	1301,82
605,43	1301,12
605,51	1300,82
605,59	1301,77
605,67	1313,82
605,74	1309,50
605,82	1301,98
605,90	1295,27
605,98	1306,27
606,05	1307,92
606,13	1304,98
606,21	1302,43
606,29	1302,09
606,36	1296,24
606,44	1294,43
606,52	1301,37
606,60	1298,45
606,67	1302,29
606,75	1303,97
606,83	1300,98
606,91	1309,05
606,98	1298,20
607,06	1298,36
607,14	1300,40
607,22	1293,48
607,29	1298,25
607,37	1296,82
607,45	1304,40
607,52	1306,18
607,60	1304,37
607,68	1299,65
607,76	1300,42
607,83	1301,73
607,91	1305,48
607,99	1302,77
608,06	1299,92
608,14	1301,64
608,22	1302,66
608,30	1304,28
608,37	1300,71
608,45	1293,34
608,53	1303,99
608,60	1301,77
608,68	1296,17
608,76	1305,28
608,83	1305,05
608,91	1294,59
608,99	1305,01
609,06	1301,07
609,14	1300,98
609,22	1296,30
609,29	1296,73
609,37	1296,62
609,45	1308,55
609,52	1291,47
609,60	1299,81
609,68	1298,38
609,75	1300,76
609,83	1291,45
609,91	1311,13
609,98	1301,10
610,06	1299,67
610,13	1302,90
610,21	1301,98
610,29	1297,46
610,36	1295,31
610,44	1298,29
610,52	1302,00
610,59	1291,22
610,67	1295,31
610,74	1300,96
610,82	1302,07
610,90	1303,20
610,97	1299,17
611,05	1305,84
611,13	1304,62
611,20	1298,66
611,28	1299,54
611,35	1302,38
611,43	1296,26
611,51	1297,59
611,58	1295,85
611,66	1304,71
611,73	1293,16
611,81	1306,04
611,88	1300,91
611,96	1303,60
612,04	1298,47
612,11	1299,40
612,19	1310,34
612,26	1296,35
612,34	1300,55
612,41	1301,46
612,49	1293,59
612,57	1293,84
612,64	1300,01
612,72	1302,59
612,79	1310,61
612,87	1294,34
612,94	1295,49
613,02	1300,98
613,09	1300,91
613,17	1304,01
613,24	1299,51
613,32	1296,76
613,40	1299,22
613,47	1298,07
613,55	1292,98
613,62	1310,84
613,70	1311,11
613,77	1304,60
613,85	1305,50
613,92	1298,81
614,00	1296,58
614,07	1294,16
614,15	1292,40
614,22	1288,51
614,30	1303,13
614,37	1296,53
614,45	1304,21
614,52	1301,73
614,60	1297,37
614,67	1306,38
614,75	1299,49
614,82	1302,63
614,90	1289,91
614,97	1299,17
615,05	1310,84
615,12	1306,65
615,20	1301,10
615,27	1299,11
615,34	1302,20
615,42	1287,38
615,49	1298,77
615,57	1296,64
615,64	1301,71
615,72	1303,65
615,79	1296,15
615,87	1304,03
615,94	1301,46
616,02	1301,80
616,09	1307,94
616,16	1302,16
616,24	1304,33
616,31	1298,34
616,39	1301,21
616,46	1301,57
616,54	1304,69
616,61	1307,42
616,68	1301,57
616,76	1298,04
616,83	1297,62
616,91	1301,12
616,98	1294,16
617,06	1302,81
617,13	1299,31
617,20	1298,50
617,28	1302,86
617,35	1299,90
617,43	1295,65
617,50	1296,35
617,57	1295,31
>>>>>End Processed Spectral Data<<<<<
