SpectraSuite Datei
++++++++++++++++++++++++++++++++++++
Datum: Sat Jan 03 09:58:08 CET 2004
Benutzer: Student
Dark-Spektrum vorhanden: Nein
Referenz-Spektrum vorhanden: Nein
Zahl der probierten Teilspektren: 1
Spektrometer: USB2+H04734
Integrationszeit (usec): 30000000 (USB2+H04734)
Spektren Durchschnitt berechnet: 10 (USB2+H04734)
Boxcar Glättung: 0 (USB2+H04734)
Dunkelstromkorrektur: Nein (USB2+H04734)
Puls/Lampe aktiviert: Nein (USB2+H04734)
Correct for Detector Non-linearity: Nein (USB2+H04734)
Streulichtkorrektur: Nein (USB2+H04734)
Anzahl Pixel in verarbeitetem Spektrum: 2048
>>>>>Begin Processed Spectral Data<<<<<
418,45	1233,87
418,57	1233,87
418,69	1233,87
418,80	1160,65
418,92	1161,78
419,04	8195,72
419,16	3780,01
419,28	3954,70
419,40	3394,04
419,52	4001,48
419,64	3251,44
419,75	3436,52
419,87	3625,89
419,99	3078,56
420,11	3377,09
420,23	3700,69
420,35	5014,33
420,47	4128,25
420,58	3362,17
420,70	4354,91
420,82	3946,56
420,94	4895,92
421,06	6522,99
421,18	5023,82
421,29	4396,95
421,41	3532,56
421,53	4367,57
421,65	5728,89
421,77	5632,39
421,89	4288,02
422,00	6828,52
422,12	4118,31
422,24	3873,57
422,36	6335,20
422,48	6034,19
422,59	4395,36
422,71	5700,42
422,83	3493,92
422,95	3861,14
423,07	5330,48
423,18	6724,12
423,30	5757,59
423,42	3888,71
423,54	4486,44
423,66	3874,70
423,77	4752,87
423,89	4112,21
424,01	3691,20
424,13	3409,40
424,25	3656,40
424,36	4970,04
424,48	4548,35
424,60	4097,75
424,72	6495,42
424,84	4071,31
424,95	6095,21
425,07	4591,07
425,19	4561,46
425,31	4856,82
425,42	3410,31
425,54	5290,71
425,66	4956,71
425,78	3885,77
425,89	4555,81
426,01	4028,14
426,13	4292,54
426,25	6115,77
426,36	4174,81
426,48	5263,36
426,60	5462,00
426,72	4242,15
426,83	5552,85
426,95	5065,18
427,07	4341,58
427,19	7529,97
427,30	4629,03
427,42	3291,89
427,54	3600,36
427,66	4202,38
427,77	3760,35
427,89	4782,70
428,01	5099,30
428,12	5189,92
428,24	3306,35
428,36	3555,61
428,48	3289,86
428,59	3486,24
428,71	4608,92
428,83	3409,85
428,94	3958,09
429,06	3900,46
429,18	5210,48
429,30	4513,55
429,41	4026,79
429,53	5764,37
429,65	5537,71
429,76	5066,53
429,88	3893,23
430,00	4907,89
430,11	6242,10
430,23	4094,36
430,35	7033,71
430,47	4023,17
430,58	3506,35
430,70	5749,00
430,82	4871,96
430,93	9846,97
431,05	4605,30
431,17	4241,02
431,28	5794,42
431,40	3671,77
431,52	6961,40
431,63	3425,22
431,75	3383,41
431,87	4213,22
431,98	5637,14
432,10	4595,59
432,22	4182,04
432,33	6162,78
432,45	4455,48
432,56	4657,05
432,68	5473,98
432,80	4008,71
432,91	5570,70
433,03	4666,54
433,15	6294,98
433,26	4752,87
433,38	4245,09
433,50	3162,63
433,61	5826,06
433,73	6632,59
433,84	4246,22
433,96	3541,83
434,08	4375,93
434,19	4161,70
434,31	4164,41
434,43	4557,62
434,54	4368,25
434,66	3283,98
434,77	3172,35
434,89	5478,50
435,01	4720,10
435,12	3516,97
435,24	3987,01
435,35	3928,26
435,47	7262,41
435,59	4409,15
435,70	3707,93
435,82	4353,11
435,93	5954,42
436,05	4654,57
436,17	4201,02
436,28	5137,72
436,40	4951,73
436,51	3530,53
436,63	4243,05
436,74	5977,92
436,86	7017,22
436,98	11839,91
437,09	4067,69
437,21	5563,02
437,32	3594,48
437,44	5452,29
437,55	3928,94
437,67	16365,67
437,79	8287,01
437,90	4984,73
438,02	3728,49
438,13	42927,23
438,25	6343,79
438,36	5555,33
438,48	4990,38
438,59	6001,65
438,71	4775,47
438,83	3741,82
438,94	3472,00
439,06	6092,72
439,17	5783,35
439,29	3781,37
439,40	4583,83
439,52	4062,04
439,63	5131,16
439,75	3502,05
439,86	3428,38
439,98	4461,35
440,09	5579,74
440,21	4244,18
440,32	3904,76
440,44	3207,60
440,55	4522,14
440,67	3974,36
440,78	6196,22
440,90	3529,62
441,01	3991,76
441,13	3577,99
441,24	4946,54
441,36	6500,62
441,47	3719,90
441,59	5679,85
441,70	3423,19
441,82	5759,62
441,93	5033,09
442,05	3156,53
442,16	3768,49
442,28	3210,54
442,39	4291,19
442,51	5533,41
442,62	3914,93
442,74	5704,26
442,85	4300,45
442,97	7517,99
443,08	5453,19
443,20	5312,18
443,31	4877,16
443,43	3859,56
443,54	4964,84
443,66	3167,15
443,77	3708,15
443,88	3235,62
444,00	4624,06
444,11	5560,31
444,23	6429,44
444,34	3548,61
444,46	3551,09
444,57	6381,53
444,69	5927,75
444,80	5001,90
444,91	8455,60
445,03	3373,24
445,14	5735,44
445,26	3188,39
445,37	3443,75
445,49	4588,58
445,60	6233,96
445,71	7107,38
445,83	4392,20
445,94	3490,30
446,06	5840,07
446,17	3318,33
446,29	2960,37
446,40	4253,45
446,51	5960,30
446,63	4311,30
446,74	3686,91
446,86	3785,89
446,97	6127,30
447,08	3649,85
447,20	4029,05
447,31	3286,69
447,43	4337,51
447,54	4639,43
447,65	5258,62
447,77	3476,29
447,88	4221,58
448,00	4753,55
448,11	3197,88
448,22	3791,09
448,34	4669,26
448,45	3050,77
448,56	4070,85
448,68	4789,25
448,79	6253,17
448,90	5116,93
449,02	4078,31
449,13	3874,02
449,25	4893,88
449,36	3849,62
449,47	4088,25
449,59	6571,80
449,70	4523,27
449,81	3815,72
449,93	4180,23
450,04	3859,56
450,15	4013,45
450,27	4211,41
450,38	5065,86
450,49	3955,83
450,61	6972,70
450,72	4155,37
450,83	5548,78
450,95	4020,69
451,06	5068,34
451,17	7016,54
451,29	5464,26
451,40	3671,32
451,51	3161,50
451,63	3355,62
451,74	5937,47
451,85	4059,10
451,97	5674,88
452,08	4389,26
452,19	3566,69
452,31	6358,25
452,42	4351,52
452,53	6791,23
452,65	6036,68
452,76	3276,07
452,87	3394,71
452,98	3555,16
453,10	4173,22
453,21	3413,02
453,32	3787,70
453,44	3425,67
453,55	3036,08
453,66	8421,02
453,77	5108,79
453,89	5410,93
454,00	6905,13
454,11	4615,70
454,23	4406,89
454,34	4485,53
454,45	3177,54
454,56	5100,88
454,68	7454,49
454,79	4282,60
454,90	4716,26
455,01	3361,95
455,13	3137,09
455,24	6654,29
455,35	3677,19
455,46	2765,35
455,58	3097,32
455,69	6261,98
455,80	5047,55
455,91	3232,91
456,03	4215,26
456,14	5589,46
456,25	3584,76
456,36	3232,68
456,48	4024,07
456,59	6290,23
456,70	3600,81
456,81	6003,01
456,92	7228,51
457,04	5432,85
457,15	8376,05
457,26	3220,71
457,37	4090,29
457,49	3604,65
457,60	3177,54
457,71	4365,53
457,82	5152,41
457,93	4448,70
458,05	5991,48
458,16	3440,81
458,27	3995,15
458,38	4399,66
458,49	5170,26
458,61	3963,51
458,72	4611,18
458,83	4081,47
458,94	5202,35
459,05	4990,60
459,17	11959,46
459,28	3734,14
459,39	4207,35
459,50	3155,62
459,61	5665,61
459,72	3227,71
459,84	3356,52
459,95	4277,40
460,06	11452,35
460,17	3561,26
460,28	4075,15
460,39	4205,99
460,51	4836,93
460,62	4142,72
460,73	4108,37
460,84	2809,64
460,95	6475,08
461,06	6955,98
461,18	6295,43
461,29	6102,66
461,40	4377,29
461,51	4900,44
461,62	8653,11
461,73	4181,58
461,84	5106,98
461,96	4991,28
462,07	5454,32
462,18	3702,50
462,29	4185,88
462,40	5696,12
462,51	4106,33
462,62	6473,50
462,73	7185,80
462,85	5410,71
462,96	5230,82
463,07	5790,81
463,18	8179,90
463,29	5335,00
463,40	3870,18
463,51	3292,12
463,62	3425,67
463,73	5477,37
463,85	3504,09
463,96	4570,95
464,07	4375,48
464,18	4045,32
464,29	3296,18
464,40	6720,05
464,51	4549,71
464,62	4031,98
464,73	3177,09
464,84	5194,21
464,95	4089,16
465,06	4168,93
465,18	2927,38
465,29	4633,10
465,40	3822,50
465,51	4209,38
465,62	5336,36
465,73	4175,03
465,84	4743,38
465,95	4891,62
466,06	3774,59
466,17	4258,19
466,28	4085,99
466,39	5903,12
466,50	3101,61
466,61	2606,71
466,72	4613,21
466,83	3101,16
466,95	3371,21
467,06	2904,56
467,17	4029,05
467,28	3485,56
467,39	3990,86
467,50	4995,80
467,61	3000,15
467,72	3110,20
467,83	3217,54
467,94	4494,80
468,05	3074,27
468,16	4786,99
468,27	4302,49
468,38	3148,17
468,49	5818,60
468,60	3273,81
468,71	6086,17
468,82	5725,27
468,93	5471,95
469,04	6672,14
469,15	4117,18
469,26	3664,99
469,37	4118,54
469,48	6151,70
469,59	4438,75
469,70	3191,55
469,81	4181,13
469,92	2728,97
470,03	5241,22
470,14	3187,26
470,25	5541,55
470,36	4299,10
470,47	2922,41
470,58	3005,57
470,69	5320,31
470,80	5372,06
470,91	3368,72
471,02	3689,39
471,13	4488,70
471,24	4542,48
471,35	3675,38
471,46	6569,77
471,56	5464,49
471,67	5852,95
471,78	6317,35
471,89	2789,98
472,00	3453,24
472,11	5036,93
472,22	5678,95
472,33	4028,37
472,44	4412,77
472,55	3572,79
472,66	4151,30
472,77	3863,18
472,88	7915,72
472,99	5725,50
473,10	2909,75
473,21	3777,53
473,32	3842,16
473,42	3082,18
473,53	3334,60
473,64	4589,48
473,75	4720,55
473,86	4318,98
473,97	4751,06
474,08	4714,90
474,19	5679,17
474,30	7866,69
474,41	4887,78
474,52	3692,56
474,62	4357,40
474,73	3475,39
474,84	7365,91
474,95	5044,84
475,06	5165,97
475,17	3344,54
475,28	2743,43
475,39	4182,94
475,50	3267,48
475,60	3026,14
475,71	3259,58
475,82	5631,04
475,93	3371,44
476,04	6162,78
476,15	3895,49
476,26	4782,47
476,37	3577,76
476,47	3679,68
476,58	3543,86
476,69	2779,36
476,80	2834,05
476,91	3913,80
477,02	4342,03
477,13	4234,69
477,23	3394,04
477,34	4360,56
477,45	4679,65
477,56	3745,44
477,67	3691,88
477,78	4311,07
477,89	4172,09
477,99	3665,67
478,10	5268,11
478,21	4778,41
478,32	4332,09
478,43	3770,97
478,54	7316,42
478,64	4720,33
478,75	4120,12
478,86	3510,87
478,97	4115,82
479,08	3834,70
479,18	3216,86
479,29	3639,68
479,40	3119,47
479,51	2648,07
479,62	3493,92
479,72	3547,70
479,83	2918,79
479,94	4612,99
480,05	4651,18
480,16	3251,44
480,26	4557,85
480,37	3115,17
480,48	5245,06
480,59	4181,36
480,70	4233,56
480,80	3911,54
480,91	3321,49
481,02	2917,66
481,13	4451,63
481,24	4247,80
481,34	3115,40
481,45	7546,92
481,56	3636,74
481,67	3751,31
481,77	3590,87
481,88	3526,46
481,99	5255,91
482,10	4640,10
482,20	11369,64
482,31	3672,90
482,42	4790,38
482,53	3490,98
482,63	6276,67
482,74	5252,52
482,85	3227,03
482,96	3369,63
483,06	2897,32
483,17	4838,52
483,28	3199,46
483,39	4020,46
483,49	5058,17
483,60	8097,41
483,71	3342,51
483,81	5457,94
483,92	3933,91
484,03	3966,90
484,14	3602,84
484,24	3151,78
484,35	3965,32
484,46	4115,15
484,57	3512,22
484,67	4665,64
484,78	3538,66
484,89	7661,27
484,99	3561,71
485,10	4025,66
485,21	4649,14
485,31	4561,91
485,42	4492,31
485,53	3518,10
485,63	3955,15
485,74	6700,16
485,85	8825,30
485,96	17601,80
486,06	3956,51
486,17	4288,25
486,28	4577,28
486,38	2851,90
486,49	5327,32
486,60	3094,61
486,70	3222,29
486,81	3652,79
486,92	3322,17
487,02	3346,80
487,13	2580,72
487,24	3578,66
487,34	3231,55
487,45	6660,16
487,56	3964,42
487,66	3146,81
487,77	4385,65
487,87	3539,57
487,98	2647,16
488,09	3764,19
488,19	2582,30
488,30	8021,03
488,41	3566,91
488,51	2848,06
488,62	3217,77
488,73	3295,05
488,83	4127,58
488,94	4830,83
489,04	6617,91
489,15	3363,30
489,26	3053,93
489,36	4452,99
489,47	3594,03
489,58	3092,57
489,68	4614,57
489,79	3225,68
489,89	4135,26
490,00	3582,28
490,11	4477,85
490,21	4496,38
490,32	3048,28
490,42	4001,93
490,53	4171,64
490,64	3013,25
490,74	3127,15
490,85	2899,13
490,95	4964,16
491,06	4596,94
491,16	3260,03
491,27	4650,50
491,38	3473,81
491,48	7410,88
491,59	6640,28
491,69	4554,00
491,80	2740,04
491,90	6141,31
492,01	2925,35
492,12	4957,84
492,22	3590,64
492,33	5633,07
492,43	4137,29
492,54	2942,75
492,64	3109,75
492,75	4137,07
492,86	4339,09
492,96	3820,69
493,07	3304,77
493,17	4353,11
493,28	4960,32
493,38	4372,77
493,49	3395,62
493,59	4712,42
493,70	4240,34
493,80	3273,81
493,91	2957,21
494,01	3241,50
494,12	3473,81
494,22	5556,24
494,33	6545,14
494,43	6144,47
494,54	6878,01
494,64	4708,12
494,75	3311,10
494,86	5699,29
494,96	3234,49
495,07	3778,43
495,17	6018,82
495,28	3706,80
495,38	3268,16
495,49	3932,78
495,59	4593,55
495,69	3971,87
495,80	6134,75
495,90	3667,93
496,01	2941,62
496,11	4465,65
496,22	3693,46
496,32	2985,68
496,43	5542,45
496,53	3617,98
496,64	3732,56
496,74	4406,89
496,85	4899,76
496,95	4250,51
497,06	3402,17
497,16	4535,70
497,27	3856,85
497,37	5845,27
497,48	2993,37
497,58	3056,19
497,68	3509,96
497,79	5384,04
497,89	3480,36
498,00	4009,16
498,10	2869,98
498,21	5507,65
498,31	3523,07
498,42	3283,98
498,52	5634,20
498,62	3982,72
498,73	4049,16
498,83	4626,55
498,94	3446,01
499,04	5711,49
499,15	3669,51
499,25	3086,02
499,35	5018,40
499,46	6654,29
499,56	7655,84
499,67	4864,28
499,77	2716,09
499,87	3095,06
499,98	3332,12
500,08	2508,63
500,19	3445,11
500,29	3959,22
500,39	4593,55
500,50	5363,70
500,60	3981,14
500,71	4072,89
500,81	4138,20
500,91	2911,56
501,02	3540,92
501,12	4701,57
501,22	2980,03
501,33	4209,83
501,43	5099,30
501,54	2816,88
501,64	3308,39
501,74	3509,74
501,85	6026,28
501,95	3207,37
502,05	3208,05
502,16	3597,65
502,26	6330,91
502,37	4850,27
502,47	4292,77
502,57	3695,27
502,68	3275,62
502,78	3040,60
502,88	5387,20
502,99	3765,10
503,09	5293,65
503,19	3006,25
503,30	2767,16
503,40	3150,20
503,50	3442,17
503,61	3916,73
503,71	3602,17
503,81	3691,43
503,92	4190,62
504,02	5424,26
504,12	9426,42
504,23	5832,84
504,33	3821,37
504,43	3650,98
504,54	5213,87
504,64	5011,17
504,74	9553,87
504,84	4145,88
504,95	3504,31
505,05	2544,11
505,15	6030,80
505,26	2942,97
505,36	3402,62
505,46	3346,35
505,56	4603,27
505,67	4677,62
505,77	4539,77
505,87	3115,40
505,98	2674,51
506,08	3429,97
506,18	3879,90
506,28	4187,46
506,39	3853,91
506,49	2983,20
506,59	3414,37
506,70	2883,31
506,80	4172,32
506,90	7006,14
507,00	2671,79
507,11	4091,64
507,21	5342,23
507,31	4766,88
507,41	4023,62
507,52	3479,91
507,62	3797,19
507,72	5669,91
507,82	5527,09
507,93	3536,18
508,03	5351,95
508,13	4336,38
508,23	3807,36
508,34	4364,63
508,44	3088,28
508,54	3157,43
508,64	3979,10
508,74	2688,52
508,85	3366,47
508,95	3757,64
509,05	2829,08
509,15	3574,60
509,26	4485,31
509,36	3083,53
509,46	4082,60
509,56	2896,20
509,66	3842,38
509,77	3119,69
509,87	3460,47
509,97	3834,48
510,07	4057,07
510,17	2526,71
510,28	8100,35
510,38	5256,36
510,48	3433,36
510,58	4555,81
510,68	4077,63
510,78	3991,99
510,89	3378,67
510,99	2643,77
511,09	5156,02
511,19	4763,94
511,29	2841,28
511,39	5288,22
511,50	5648,44
511,60	2860,94
511,70	4870,38
511,80	5196,70
511,90	5148,79
512,00	3789,96
512,11	3106,58
512,21	4057,07
512,31	2790,44
512,41	6287,97
512,51	4158,76
512,61	7658,10
512,71	3285,34
512,82	3278,56
512,92	2443,78
513,02	4520,56
513,12	3571,21
513,22	3262,29
513,32	5087,55
513,42	4216,39
513,53	5345,62
513,63	4570,73
513,73	4962,36
513,83	2877,44
513,93	4556,26
514,03	4728,01
514,13	6234,19
514,23	3148,39
514,33	3552,90
514,44	3518,55
514,54	3389,52
514,64	6861,97
514,74	3536,40
514,84	3466,35
514,94	4982,92
515,04	4820,21
515,14	4169,38
515,24	4477,40
515,34	4211,41
515,44	2493,72
515,55	2461,40
515,65	4640,78
515,75	3254,60
515,85	3512,68
515,95	4761,46
516,05	5943,80
516,15	4352,20
516,25	2915,40
516,35	3164,44
516,45	3274,04
516,55	3122,18
516,65	3669,73
516,75	7245,23
516,85	4644,40
516,95	5125,06
517,05	5568,67
517,16	2877,66
517,26	8246,34
517,36	3263,42
517,46	2626,82
517,56	4204,18
517,66	3652,33
517,76	3268,84
517,86	3248,50
517,96	4530,95
518,06	2952,01
518,16	3054,16
518,26	4328,70
518,36	2903,88
518,46	3324,66
518,56	4847,10
518,66	5227,43
518,76	3881,93
518,86	5155,34
518,96	2949,53
519,06	3227,03
519,16	4476,27
519,26	4060,46
519,36	4508,13
519,46	3979,10
519,56	5921,65
519,66	7217,44
519,76	3169,86
519,86	3235,85
519,96	4081,47
520,06	3591,32
520,16	6683,44
520,26	3870,86
520,36	3250,54
520,46	3297,77
520,56	3199,01
520,66	3467,93
520,76	3139,58
520,86	3541,38
520,96	5648,21
521,06	4502,71
521,16	2950,88
521,26	3624,09
521,35	4590,16
521,45	2735,97
521,55	3369,85
521,65	4515,81
521,75	3274,49
521,85	2460,05
521,95	3746,34
522,05	2618,24
522,15	2903,43
522,25	16024,66
522,35	5071,51
522,45	3462,28
522,55	5002,58
522,65	3825,21
522,75	2983,20
522,85	3251,44
522,94	3502,51
523,04	4666,77
523,14	4078,99
523,24	2865,01
523,34	3008,73
523,44	4000,35
523,54	3109,07
523,64	2949,53
523,74	6114,64
523,84	4736,37
523,94	4379,55
524,03	2700,27
524,13	4228,14
524,23	4260,90
524,33	2967,61
524,43	3603,30
524,53	3863,40
524,63	3177,09
524,73	3561,26
524,83	2825,01
524,92	3612,33
525,02	2672,92
525,12	4976,82
525,22	3931,65
525,32	2961,05
525,42	5488,44
525,52	3970,97
525,61	4544,51
525,71	2576,88
525,81	4342,71
525,91	2937,78
526,01	4078,99
526,11	4157,63
526,21	4961,00
526,30	4400,79
526,40	3302,06
526,50	4377,29
526,60	4995,57
526,70	4899,98
526,80	4670,61
526,89	3570,75
526,99	3162,85
527,09	4134,81
527,19	4391,30
527,29	4975,91
527,39	3824,53
527,48	4464,06
527,58	4373,44
527,68	2874,27
527,78	5781,77
527,88	7320,49
527,97	3855,04
528,07	3056,87
528,17	5400,54
528,27	5714,65
528,37	3753,35
528,46	3174,38
528,56	6545,82
528,66	4862,02
528,76	2812,13
528,86	5230,14
528,95	3088,28
529,05	4126,22
529,15	4150,85
529,25	5049,58
529,35	5237,38
529,44	4841,45
529,54	6067,19
529,64	4751,74
529,74	3674,48
529,83	3013,93
529,93	3522,62
530,03	4413,67
530,13	4058,65
530,22	5834,20
530,32	5591,04
530,42	5137,72
530,52	2523,10
530,61	5214,33
530,71	2903,43
530,81	5254,10
530,91	3890,07
531,00	3820,92
531,10	3879,90
531,20	5027,89
531,30	4536,38
531,39	5243,48
531,49	5491,16
531,59	11152,93
531,69	9113,66
531,78	7705,79
531,88	9352,75
531,98	9477,72
532,07	7219,92
532,17	7816,29
532,27	7832,56
532,37	5401,89
532,46	5274,89
532,56	4500,45
532,66	3042,41
532,75	3860,92
532,85	4223,39
532,95	3889,16
533,04	3845,55
533,14	4375,25
533,24	4843,71
533,34	3459,34
533,43	4924,84
533,53	2653,94
533,63	4516,72
533,72	3653,24
533,82	3034,95
533,92	2994,50
534,01	8449,95
534,11	9421,90
534,21	4765,07
534,30	3580,02
534,40	3818,43
534,50	2695,30
534,59	3431,10
534,69	3049,19
534,79	4150,85
534,88	6159,84
534,98	5393,98
535,08	2453,04
535,17	4851,17
535,27	3582,96
535,36	3152,01
535,46	4553,10
535,56	2875,86
535,65	4560,11
535,75	5193,08
535,85	4219,32
535,94	3349,74
536,04	3812,33
536,14	4861,57
536,23	6134,30
536,33	3404,66
536,42	4195,14
536,52	3615,27
536,62	2651,91
536,71	4399,21
536,81	3968,71
536,90	3953,12
537,00	4123,73
537,10	3228,39
537,19	4036,05
537,29	4656,37
537,38	5543,58
537,48	3934,36
537,58	3918,99
537,67	3138,00
537,77	3635,38
537,86	3342,06
537,96	5807,53
538,06	3669,73
538,15	2978,68
538,25	7013,15
538,34	7881,60
538,44	7070,77
538,53	4623,61
538,63	5810,92
538,73	4913,32
538,82	3906,79
538,92	3648,49
539,01	7093,37
539,11	2816,65
539,20	7705,56
539,30	4596,94
539,39	3323,75
539,49	4560,33
539,59	4773,21
539,68	8036,85
539,78	7793,02
539,87	4766,88
539,97	4970,72
540,06	4921,45
540,16	3064,33
540,25	4728,01
540,35	6334,52
540,44	4869,02
540,54	6740,84
540,63	4349,72
540,73	3497,54
540,82	4926,65
540,92	3365,56
541,01	5591,27
541,11	5989,22
541,20	4304,75
541,30	4322,15
541,39	4965,75
541,49	4350,85
541,58	6617,45
541,68	6240,74
541,77	4401,69
541,87	2913,37
541,96	2819,81
542,06	5311,05
542,15	4602,82
542,25	6591,01
542,34	5304,95
542,44	3314,94
542,53	3935,72
542,63	4575,25
542,72	3488,95
542,82	3434,49
542,91	4087,12
543,01	3236,98
543,10	5177,94
543,20	4023,62
543,29	4502,71
543,38	3180,03
543,48	3841,25
543,57	3503,86
543,67	3402,85
543,76	3764,42
543,86	3610,07
543,95	4746,99
544,05	6927,50
544,14	8108,94
544,23	4141,36
544,33	3472,68
544,42	4935,46
544,52	3613,46
544,61	4255,26
544,71	6492,94
544,80	7376,76
544,89	6392,60
544,99	4644,17
545,08	6143,79
545,18	3001,73
545,27	8385,09
545,36	6566,61
545,46	5182,69
545,55	3877,86
545,65	4279,66
545,74	3660,92
545,84	2952,92
545,93	4375,25
546,02	3823,63
546,12	5581,32
546,21	4928,91
546,30	4467,91
546,40	4769,14
546,49	3410,08
546,59	4715,81
546,68	3664,76
546,77	5721,88
546,87	4633,55
546,96	5804,59
547,05	4905,18
547,15	3428,84
547,24	4200,12
547,34	3456,63
547,43	4307,23
547,52	5908,77
547,62	4874,67
547,71	5239,41
547,80	5156,70
547,90	4096,84
547,99	7101,28
548,08	4828,80
548,18	2727,39
548,27	3225,45
548,36	3165,57
548,46	3526,23
548,55	3423,64
548,64	4472,42
548,74	3237,65
548,83	4423,84
548,92	7154,39
549,02	3349,06
549,11	8614,69
549,20	5217,72
549,30	3751,54
549,39	4392,20
549,48	4699,99
549,58	3051,22
549,67	4958,06
549,76	4317,17
549,85	3033,59
549,95	3994,02
550,04	5324,61
550,13	2962,41
550,23	5160,99
550,32	3343,87
550,41	3222,97
550,50	4662,70
550,60	6842,98
550,69	4147,91
550,78	2859,36
550,88	5539,29
550,97	5236,25
551,06	4097,75
551,15	4264,75
551,25	6740,16
551,34	3166,24
551,43	3929,16
551,52	4793,32
551,62	5775,44
551,71	6149,89
551,80	5646,63
551,89	4640,78
551,99	3998,09
552,08	4185,20
552,17	3599,91
552,26	4975,91
552,36	2854,16
552,45	3026,59
552,54	2868,40
552,63	5011,17
552,73	7549,41
552,82	7215,63
552,91	4563,04
553,00	9126,31
553,10	4466,78
553,19	7293,59
553,28	3897,07
553,37	5654,09
553,46	3246,69
553,56	5593,53
553,65	3355,84
553,74	3117,88
553,83	4909,25
553,92	4175,71
554,02	4947,44
554,11	4060,91
554,20	3110,65
554,29	7121,39
554,38	3812,33
554,48	4141,59
554,57	3602,39
554,66	3789,73
554,75	5176,81
554,84	5383,14
554,94	4768,69
555,03	3577,76
555,12	2979,58
555,21	3182,97
555,30	7696,97
555,39	3381,83
555,49	3666,57
555,58	4886,88
555,67	5416,35
555,76	6060,63
555,85	3271,33
555,94	3183,87
556,03	3982,95
556,13	4347,91
556,22	4095,03
556,31	4459,32
556,40	2909,75
556,49	5863,35
556,58	4183,84
556,67	4253,67
556,77	3787,02
556,86	6779,71
556,95	5426,75
557,04	7124,11
557,13	7396,64
557,22	6402,54
557,31	4850,95
557,40	4270,17
557,50	6841,40
557,59	3466,35
557,68	3531,66
557,77	6278,48
557,86	4808,46
557,95	4559,43
558,04	4324,41
558,13	4119,21
558,22	4858,63
558,31	4057,75
558,41	3132,35
558,50	5480,76
558,59	5736,80
558,68	6220,85
558,77	5744,71
558,86	3055,51
558,95	2950,43
559,04	4721,23
559,13	6423,11
559,22	3557,87
559,31	3977,07
559,40	3422,96
559,49	3768,94
559,59	5671,49
559,68	2968,06
559,77	6896,32
559,86	7915,27
559,95	4613,66
560,04	4242,60
560,13	5015,01
560,22	8267,58
560,31	4982,02
560,40	4883,49
560,49	3033,82
560,58	3806,00
560,67	3226,36
560,76	3240,37
560,85	2717,67
560,94	6342,66
561,03	3625,67
561,12	10335,10
561,21	8644,74
561,30	4345,87
561,39	4193,56
561,48	4494,80
561,57	3049,41
561,66	5352,63
561,75	7504,89
561,84	3906,34
561,93	3895,26
562,02	4155,60
562,11	3220,03
562,20	3529,62
562,29	4447,57
562,38	2725,13
562,47	5850,47
562,56	4743,38
562,65	3707,70
562,74	4136,16
562,83	10029,57
562,92	5170,26
563,01	6999,82
563,10	3254,15
563,19	3899,33
563,28	10949,09
563,37	6294,75
563,46	3216,64
563,55	3879,90
563,64	9816,92
563,73	3265,68
563,82	5135,46
563,91	7458,79
564,00	4357,40
564,09	3252,80
564,18	4653,66
564,27	2956,08
564,35	5087,32
564,44	4377,96
564,53	5823,35
564,62	5559,63
564,71	4896,14
564,80	4964,84
564,89	5245,51
564,98	26779,86
565,07	5471,49
565,16	3337,09
565,25	14172,96
565,34	3941,37
565,43	4037,41
565,51	3481,04
565,60	7158,91
565,69	3739,79
565,78	7408,62
565,87	2714,05
565,96	2373,95
566,05	5371,84
566,14	6779,03
566,23	5083,71
566,32	7136,99
566,40	5952,84
566,49	7190,55
566,58	3721,48
566,67	4399,88
566,76	3431,32
566,85	3751,99
566,94	4633,10
567,03	5458,16
567,11	4085,54
567,20	4208,48
567,29	6771,12
567,38	5418,39
567,47	3082,63
567,56	4530,95
567,65	4691,18
567,73	3214,38
567,82	3213,02
567,91	5097,72
568,00	4384,74
568,09	5748,55
568,18	3545,44
568,27	4285,99
568,35	4733,43
568,44	5647,99
568,53	5024,95
568,62	3314,49
568,71	3154,95
568,80	3685,10
568,88	5846,85
568,97	6931,12
569,06	3166,02
569,15	3797,41
569,24	5196,25
569,32	5530,25
569,41	4512,88
569,50	3084,66
569,59	2819,59
569,68	3119,24
569,76	4376,83
569,85	5338,62
569,94	5862,90
570,03	3425,22
570,12	5396,47
570,20	4488,24
570,29	5285,74
570,38	5019,53
570,47	4979,30
570,56	2940,49
570,64	3925,77
570,73	4145,88
570,82	7086,37
570,91	5852,05
570,99	3187,49
571,08	2995,18
571,17	3619,57
571,26	6393,50
571,34	3621,60
571,43	4811,62
571,52	5251,61
571,61	3247,15
571,69	3094,83
571,78	5674,43
571,87	6344,01
571,96	6055,66
572,04	5819,73
572,13	5849,34
572,22	3403,30
572,31	3056,64
572,39	3374,83
572,48	4668,13
572,57	3846,68
572,66	4497,06
572,74	2810,10
572,83	4983,15
572,92	3918,54
573,00	3055,96
573,09	5295,23
573,18	5980,18
573,27	5523,92
573,35	3453,92
573,44	3028,39
573,53	4217,74
573,61	4287,12
573,70	4956,03
573,79	3388,61
573,87	7886,35
573,96	3636,06
574,05	4135,48
574,14	4121,70
574,22	3541,60
574,31	5673,52
574,40	2960,15
574,48	4330,73
574,57	4612,31
574,66	3990,63
574,74	4167,57
574,83	6266,28
574,92	6370,45
575,00	3971,87
575,09	6200,29
575,18	3732,11
575,26	7147,16
575,35	3702,50
575,43	3879,90
575,52	5588,33
575,61	5142,92
575,69	5881,65
575,78	3595,39
575,87	8238,20
575,95	5225,63
576,04	3519,23
576,13	4860,21
576,21	3806,45
576,30	4972,75
576,38	4765,75
576,47	3924,64
576,56	3752,67
576,64	4200,57
576,73	5860,86
576,82	5452,51
576,90	4661,57
576,99	4715,13
577,07	3894,81
577,16	4148,37
577,25	5311,50
577,33	8593,90
577,42	4787,67
577,50	3624,76
577,59	5205,96
577,68	6575,87
577,76	4435,14
577,85	4244,41
577,93	4768,01
578,02	4901,34
578,10	4645,75
578,19	4743,15
578,28	4010,97
578,36	4308,81
578,45	4615,02
578,53	3315,17
578,62	3757,64
578,70	3519,46
578,79	4205,09
578,88	4570,50
578,96	3436,75
579,05	3462,28
579,13	7895,61
579,22	5160,54
579,30	4032,21
579,39	5329,80
579,47	7421,73
579,56	3871,08
579,64	12982,48
579,73	4295,71
579,82	5238,28
579,90	3564,65
579,99	3760,13
580,07	5209,58
580,16	4639,43
580,24	5911,03
580,33	2846,48
580,41	4737,28
580,50	3274,72
580,58	4408,25
580,67	4008,26
580,75	4416,16
580,84	4365,99
580,92	3278,11
581,01	7481,39
581,09	3529,17
581,18	4091,87
581,26	3567,59
581,35	3067,72
581,43	5772,73
581,52	4303,16
581,60	4944,73
581,69	4268,81
581,77	4803,94
581,86	4988,12
581,94	4078,54
582,02	6096,34
582,11	3210,54
582,19	6768,41
582,28	8366,33
582,36	7860,58
582,45	7995,95
582,53	3651,20
582,62	3722,84
582,70	3537,53
582,79	5146,31
582,87	3407,37
582,96	5028,57
583,04	7060,15
583,12	4898,85
583,21	4699,76
583,29	5127,32
583,38	5104,05
583,46	4246,22
583,55	4768,46
583,63	3269,74
583,71	5278,05
583,80	4638,07
583,88	3223,64
583,97	9147,56
584,05	5256,81
584,13	5910,81
584,22	5517,37
584,30	4024,07
584,39	5618,38
584,47	6155,54
584,55	3653,24
584,64	4805,30
584,72	5022,24
584,81	3218,45
584,89	3574,60
584,97	3453,02
585,06	3417,99
585,14	4434,23
585,23	4939,76
585,31	3073,37
585,39	4051,64
585,48	4804,62
585,56	3166,02
585,64	5098,62
585,73	4512,65
585,81	4426,32
585,90	5664,26
585,98	4007,58
586,06	4217,97
586,15	6939,93
586,23	3092,12
586,31	3681,03
586,40	3265,22
586,48	6531,81
586,56	3648,27
586,65	3081,05
586,73	3479,00
586,81	5318,28
586,90	4141,36
586,98	2961,28
587,06	3018,68
587,15	4118,31
587,23	4025,20
587,31	4374,57
587,40	3630,86
587,48	3273,81
587,56	6346,73
587,65	9265,75
587,73	5628,33
587,81	4904,28
587,90	7796,18
587,98	4559,20
588,06	3579,11
588,14	3477,42
588,23	3921,25
588,31	6957,11
588,39	5539,74
588,48	4206,67
588,56	3648,04
588,64	5116,25
588,72	4758,97
588,81	3929,84
588,89	4229,49
588,97	4488,24
589,06	6577,00
589,14	6404,35
589,22	4909,02
589,30	4208,93
589,39	3670,64
589,47	5617,25
589,55	7514,83
589,63	4795,81
589,72	3961,70
589,80	3846,23
589,88	5266,98
589,96	5963,46
590,05	4729,14
590,13	4812,75
590,21	6176,79
590,29	6894,51
590,38	5683,47
590,46	6487,06
590,54	3254,38
590,62	3708,38
590,71	6119,84
590,79	6598,24
590,87	3081,95
590,95	3433,36
591,03	4160,57
591,12	4829,93
591,20	3984,30
591,28	7511,44
591,36	5104,05
591,44	4223,17
591,53	4497,73
591,61	4378,64
591,69	3606,46
591,77	4731,63
591,85	4681,23
591,94	3632,22
592,02	3902,72
592,10	5847,08
592,18	5770,70
592,26	4464,97
592,34	3361,95
592,43	2992,01
592,51	3203,08
592,59	3669,51
592,67	5514,66
592,75	3810,97
592,84	4201,92
592,92	5961,65
593,00	3944,53
593,08	4010,74
593,16	3311,33
593,24	3779,79
593,32	5544,71
593,41	4657,28
593,49	3165,79
593,57	3751,77
593,65	3613,46
593,73	4943,82
593,81	5136,59
593,89	6003,23
593,98	4185,65
594,06	3419,35
594,14	3430,64
594,22	3747,70
594,30	3753,80
594,38	4148,59
594,46	6026,06
594,54	5890,69
594,62	5575,22
594,71	4216,61
594,79	3666,57
594,87	4257,74
594,95	4288,70
595,03	6072,38
595,11	4405,08
595,19	7309,64
595,27	4224,30
595,35	3689,85
595,43	3592,00
595,52	3853,23
595,60	4023,40
595,68	7886,35
595,76	3336,64
595,84	5335,00
595,92	3437,88
596,00	6651,35
596,08	5985,38
596,16	4571,63
596,24	4336,84
596,32	3980,23
596,40	5266,08
596,48	5212,74
596,56	5166,64
596,64	3373,70
596,73	6630,79
596,81	3746,57
596,89	4912,19
596,97	3009,64
597,05	10384,13
597,13	4138,65
597,21	3125,57
597,29	4011,19
597,37	6340,17
597,45	5096,36
597,53	3635,16
597,61	4736,15
597,69	5421,33
597,77	4167,35
597,85	3774,82
597,93	4557,85
598,01	4039,67
598,09	5638,95
598,17	4294,58
598,25	4595,13
598,33	3123,53
598,41	3948,37
598,49	3095,29
598,57	3518,55
598,65	4124,64
598,73	4398,30
598,81	4782,02
598,89	4179,55
598,97	3300,70
599,05	6494,74
599,13	4013,45
599,21	3450,98
599,29	4529,82
599,37	4034,24
599,45	3627,25
599,53	7007,50
599,61	3589,74
599,69	5007,55
599,77	4131,42
599,85	3484,20
599,93	3908,37
600,00	3270,42
600,08	5216,36
600,16	2892,13
600,24	3240,37
600,32	6936,99
600,40	7552,34
600,48	6426,05
600,56	6019,73
600,64	6067,86
600,72	4251,41
600,80	4468,13
600,88	4135,26
600,96	6152,83
601,04	3206,47
601,12	3573,24
601,19	2755,18
601,27	3768,26
601,35	4393,56
601,43	3521,94
601,51	4632,42
601,59	3587,70
601,67	3168,05
601,75	3730,07
601,83	4509,71
601,91	2998,57
601,98	3236,75
602,06	5971,37
602,14	4666,32
602,22	4982,69
602,30	5535,45
602,38	4583,83
602,46	3321,72
602,54	6132,72
602,61	4990,60
602,69	4728,92
602,77	2989,53
602,85	3291,21
602,93	3371,66
603,01	4418,19
603,09	6088,88
603,17	3867,69
603,24	4946,76
603,32	3027,04
603,40	4411,86
603,48	5145,18
603,56	2932,13
603,64	3092,57
603,71	3254,38
603,79	4199,21
603,87	5432,85
603,95	8571,53
604,03	3995,60
604,11	5911,71
604,18	4773,66
604,26	3566,01
604,34	3051,67
604,42	4650,73
604,50	3392,91
604,57	3409,85
604,65	4020,69
604,73	4177,07
604,81	4533,67
604,89	3326,69
604,96	3900,91
605,04	5001,68
605,12	3914,02
605,20	5436,69
605,28	6576,55
605,35	4427,68
605,43	3889,39
605,51	3849,62
605,59	5556,01
605,67	7800,02
605,74	4105,88
605,82	4416,16
605,90	3302,96
605,98	5205,96
606,05	4232,66
606,13	5262,23
606,21	4447,57
606,29	4005,77
606,36	4261,81
606,44	3568,27
606,52	4431,30
606,60	4016,39
606,67	2942,30
606,75	3644,88
606,83	2675,41
606,91	5590,59
606,98	3452,11
607,06	4225,88
607,14	3928,26
607,22	3906,56
607,29	3481,26
607,37	4297,29
607,45	4990,15
607,52	5356,47
607,60	5304,27
607,68	4119,67
607,76	4939,98
607,83	2755,86
607,91	5096,82
607,99	4805,52
608,06	4656,83
608,14	3760,81
608,22	4163,96
608,30	6326,61
608,37	3166,02
608,45	2580,50
608,53	4480,33
608,60	4655,47
608,68	3421,60
608,76	3805,78
608,83	5359,18
608,91	3227,71
608,99	5351,95
609,06	4631,52
609,14	5193,08
609,22	4019,56
609,29	3433,58
609,37	2994,72
609,45	5740,87
609,52	3300,03
609,60	3317,65
609,68	3460,93
609,75	4210,06
609,83	2723,77
609,91	7522,06
609,98	3732,78
610,06	3606,46
610,13	5036,48
610,21	4395,36
610,29	4389,04
610,36	2874,73
610,44	3559,68
610,52	4171,19
610,59	3200,59
610,67	3098,68
610,74	4173,90
610,82	3365,11
610,90	4756,49
610,97	3696,63
611,05	4935,24
611,13	4481,01
611,20	6772,70
611,28	3364,66
611,35	4076,95
611,43	2766,71
611,51	4736,37
611,58	4443,72
611,66	6463,33
611,73	3279,01
611,81	6266,73
611,88	4677,17
611,96	5323,25
612,04	3255,51
612,11	3157,66
612,19	6885,69
612,26	3810,07
612,34	4245,09
612,41	3952,44
612,49	2699,59
612,57	2774,62
612,64	3113,82
612,72	6277,12
612,79	7734,71
612,87	2802,19
612,94	2674,05
613,02	4278,53
613,09	3903,63
613,17	4910,15
613,24	3643,52
613,32	5443,70
613,40	3572,79
613,47	3919,22
613,55	3049,19
613,62	5705,16
613,70	5955,32
613,77	3422,28
613,85	5596,01
613,92	3870,41
614,00	3027,72
614,07	3665,89
614,15	2657,56
614,22	3020,94
614,30	4617,51
614,37	2925,57
614,45	3640,13
614,52	3217,99
614,60	3711,54
614,67	5233,76
614,75	2698,01
614,82	4937,05
614,90	3488,50
614,97	3042,63
615,05	6657,00
615,12	5392,85
615,20	4177,07
615,27	4156,73
615,34	3996,73
615,42	3144,10
615,49	4020,01
615,57	2912,47
615,64	3195,62
615,72	3443,30
615,79	3417,76
615,87	4646,21
615,94	5997,81
616,02	4375,70
616,09	5847,98
616,16	4643,04
616,24	4140,23
616,31	3025,23
616,39	6114,42
616,46	5721,21
616,54	4408,47
616,61	6918,24
616,68	3108,84
616,76	3916,28
616,83	4786,31
616,91	3429,06
616,98	3212,80
617,06	5628,78
617,13	3295,73
617,20	3563,07
617,28	4069,27
617,35	3039,47
617,43	5915,32
617,50	3521,49
617,57	3930,97
>>>>>End Processed Spectral Data<<<<<
