SpectraSuite Datei
++++++++++++++++++++++++++++++++++++
Datum: Fri Jan 02 02:07:50 CET 2004
Benutzer: Student
Dark-Spektrum vorhanden: Nein
Referenz-Spektrum vorhanden: Nein
Zahl der probierten Teilspektren: 1
Spektrometer: USB2+H04734
Integrationszeit (usec): 30000000 (USB2+H04734)
Spektren Durchschnitt berechnet: 10 (USB2+H04734)
Boxcar Glättung: 0 (USB2+H04734)
Dunkelstromkorrektur: Nein (USB2+H04734)
Puls/Lampe aktiviert: Nein (USB2+H04734)
Correct for Detector Non-linearity: Nein (USB2+H04734)
Streulichtkorrektur: Nein (USB2+H04734)
Anzahl Pixel in verarbeitetem Spektrum: 2048
>>>>>Begin Processed Spectral Data<<<<<
418,45	1360,87
418,57	1360,87
418,69	1360,87
418,80	1277,25
418,92	1259,18
419,04	7513,25
419,16	3647,59
419,28	3805,55
419,40	3309,52
419,52	3857,53
419,64	3156,53
419,75	3331,21
419,87	3519,91
419,99	3034,50
420,11	3265,00
420,23	3586,57
420,35	4731,85
420,47	3955,38
420,58	3264,55
420,70	4154,69
420,82	3779,11
420,94	4656,15
421,06	6087,98
421,18	4770,04
421,29	4163,28
421,41	3451,43
421,53	4212,77
421,65	5417,03
421,77	5326,41
421,89	4100,46
422,00	6370,91
422,12	3966,90
422,24	3742,05
422,36	5821,77
422,48	5675,78
422,59	4170,51
422,71	5338,16
422,83	3412,79
422,95	3740,24
423,07	5042,58
423,18	6260,40
423,30	5405,96
423,42	3758,77
423,54	4305,20
423,66	3732,56
423,77	4493,44
423,89	3955,38
424,01	3583,63
424,13	3296,18
424,25	3548,38
424,36	4674,68
424,48	4377,74
424,60	3937,07
424,72	6089,33
424,84	3940,91
424,95	5756,01
425,07	4365,53
425,19	4370,05
425,31	4653,44
425,42	3336,41
425,54	4958,97
425,66	4735,69
425,78	3769,17
425,89	4301,13
426,01	3876,96
426,13	4123,96
426,25	5705,39
426,36	3980,91
426,48	4963,94
426,60	5170,03
426,72	4039,67
426,83	5214,33
426,95	4813,88
427,07	4172,55
427,19	7020,61
427,30	4394,46
427,42	3205,34
427,54	3529,62
427,66	4032,44
427,77	3695,72
427,89	4514,23
428,01	4839,65
428,12	4944,73
428,24	3247,37
428,36	3487,59
428,48	3218,67
428,59	3379,57
428,71	4382,26
428,83	3368,05
428,94	3784,99
429,06	3783,40
429,18	4956,93
429,30	4287,57
429,41	3817,07
429,53	5407,54
429,65	5142,92
429,76	4820,21
429,88	3766,23
430,00	4711,51
430,11	5859,51
430,23	3936,62
430,35	6442,09
430,47	3820,01
430,58	3424,77
430,70	5440,31
430,82	4600,11
430,93	9057,39
431,05	4373,90
431,17	4062,72
431,28	5454,55
431,40	3575,05
431,52	6514,40
431,63	3368,50
431,75	3279,69
431,87	3985,21
431,98	5325,74
432,10	4379,09
432,22	3999,67
432,33	5753,52
432,45	4254,35
432,56	4443,05
432,68	5133,42
432,80	3827,47
432,91	5227,89
433,03	4418,19
433,15	5897,92
433,26	4515,36
433,38	4044,19
433,50	3131,44
433,61	5429,69
433,73	6110,35
433,84	4059,33
433,96	3425,45
434,08	4117,18
434,19	3962,83
434,31	3922,61
434,43	4356,95
434,54	4153,11
434,66	3159,69
434,77	3095,96
434,89	5231,05
435,01	4597,85
435,12	3413,70
435,24	3862,50
435,35	3768,71
435,47	6712,14
435,59	4187,91
435,70	3591,09
435,82	4152,66
435,93	5586,07
436,05	4368,25
436,17	4016,84
436,28	4859,31
436,40	4694,57
436,51	3432,68
436,63	4054,36
436,74	5615,67
436,86	6514,63
436,98	10861,64
437,09	3924,87
437,21	5246,87
437,32	3508,38
437,44	5118,51
437,55	3793,12
437,67	14530,69
437,79	7700,36
437,90	4744,96
438,02	3641,03
438,13	38639,66
438,25	5995,77
438,36	5250,94
438,48	4726,20
438,59	5623,81
438,71	4522,37
438,83	3621,83
438,94	3372,11
439,06	5691,60
439,17	5431,72
439,29	3677,19
439,40	4322,37
439,52	3907,69
439,63	4787,22
439,75	3376,86
439,86	3323,30
439,98	4222,26
440,09	5295,00
440,21	4062,94
440,32	3762,61
440,44	3132,80
440,55	4278,31
440,67	3839,22
440,78	5837,59
440,90	3427,71
441,01	3827,24
441,13	3490,08
441,24	4635,81
441,36	6050,69
441,47	3607,59
441,59	5340,42
441,70	3339,35
441,82	5380,65
441,93	4721,68
442,05	3083,53
442,16	3652,79
442,28	3181,61
442,39	4111,08
442,51	5214,78
442,62	3743,18
442,74	5299,97
442,85	4070,85
442,97	6967,05
443,08	5158,73
443,20	5057,27
443,31	4614,57
443,43	3706,80
443,54	4719,65
443,66	3152,91
443,77	3585,22
443,88	3162,18
444,00	4432,43
444,11	5245,06
444,23	6024,47
444,34	3412,11
444,46	3426,35
444,57	5969,11
444,69	5540,65
444,80	4724,40
444,91	7767,48
445,03	3265,45
445,14	5396,24
445,26	3112,23
445,37	3356,52
445,49	4372,99
445,60	5816,80
445,71	6600,96
445,83	4174,58
445,94	3364,66
446,06	5471,04
446,17	3242,17
446,29	2913,82
446,40	4024,98
446,51	5600,30
446,63	4136,61
446,74	3546,12
446,86	3634,03
446,97	5699,51
447,08	3540,47
447,20	3860,24
447,31	3189,52
447,43	4121,02
447,54	4347,46
447,65	4957,38
447,77	3466,80
447,88	4034,47
448,00	4513,10
448,11	3126,92
448,22	3604,20
448,34	4432,65
448,45	3004,89
448,56	3912,21
448,68	4549,48
448,79	5827,87
448,90	4845,75
449,02	3890,75
449,13	3759,00
449,25	4639,43
449,36	3730,98
449,47	3881,25
449,59	6150,35
449,70	4294,58
449,81	3651,88
449,93	4020,01
450,04	3709,06
450,15	3871,76
450,27	4025,20
450,38	4793,09
450,49	3759,22
450,61	6448,64
450,72	3984,30
450,83	5135,46
450,95	3844,87
451,06	4760,10
451,17	6517,12
451,29	5106,76
451,40	3540,47
451,51	3084,44
451,63	3251,21
451,74	5529,35
451,85	3859,56
451,97	5319,63
452,08	4205,09
452,19	3463,64
452,31	5882,33
452,42	4119,44
452,53	6300,85
452,65	5629,68
452,76	3194,72
452,87	3276,30
452,98	3394,26
453,10	3973,00
453,21	3302,29
453,32	3653,46
453,44	3309,74
453,55	2988,85
453,66	7696,07
453,77	4827,44
453,89	5096,14
454,00	6370,00
454,11	4375,48
454,23	4232,88
454,34	4256,39
454,45	3126,02
454,56	4791,29
454,68	6898,80
454,79	4097,07
454,90	4445,31
455,01	3305,00
455,13	3083,99
455,24	6192,83
455,35	3545,90
455,46	2744,11
455,58	2990,66
455,69	5844,59
455,80	4720,10
455,91	3165,11
456,03	4001,48
456,14	5180,20
456,25	3474,03
456,36	3227,71
456,48	3838,09
456,59	5856,12
456,70	3488,27
456,81	5600,98
456,92	6651,12
457,04	5137,94
457,15	7713,02
457,26	3183,19
457,37	3961,93
457,49	3460,25
457,60	3135,51
457,71	4166,67
457,82	4852,98
457,93	4227,23
458,05	5600,08
458,16	3312,68
458,27	3799,90
458,38	4203,05
458,49	4821,79
458,61	3823,18
458,72	4361,47
458,83	3948,60
458,94	4871,74
459,05	4758,74
459,17	10853,95
459,28	3619,34
459,39	4016,62
459,50	3060,94
459,61	5286,87
459,72	3148,39
459,84	3249,63
459,95	4071,76
460,06	10516,33
460,17	3481,26
460,28	3914,47
460,39	4000,35
460,51	4544,97
460,62	3975,26
460,73	3921,03
460,84	2783,88
460,95	6000,07
461,06	6480,73
461,18	5956,45
461,29	5713,97
461,40	4187,91
461,51	4612,53
461,62	7990,52
461,73	4006,90
461,84	4787,67
461,96	4707,22
462,07	5115,35
462,18	3580,70
462,29	3983,40
462,40	5327,54
462,51	3914,02
462,62	6088,88
462,73	7420,60
462,85	5143,14
462,96	4946,08
463,07	5399,86
463,18	7537,43
463,29	4954,45
463,40	3719,00
463,51	3177,32
463,62	3317,65
463,73	5190,37
463,85	3409,40
463,96	4286,44
464,07	4149,95
464,18	3908,82
464,29	3179,35
464,40	6224,47
464,51	4268,36
464,62	3866,34
464,73	3115,17
464,84	4904,05
464,95	3914,47
465,06	4013,91
465,18	2858,68
465,29	4347,00
465,40	3666,34
465,51	4017,75
465,62	5041,90
465,73	3980,23
465,84	4470,62
465,95	4601,01
466,06	3590,87
466,17	4059,33
466,28	3945,88
466,39	5545,39
466,50	3022,29
466,61	2576,88
466,72	4401,47
466,83	2991,79
466,95	3253,02
467,06	2848,74
467,17	3888,71
467,28	3430,87
467,39	3784,31
467,50	4697,05
467,61	2956,98
467,72	3025,46
467,83	3134,38
467,94	4324,63
468,05	2992,92
468,16	4533,44
468,27	4081,02
468,38	3085,34
468,49	5442,12
468,60	3250,54
468,71	5643,24
468,82	5353,31
468,93	5173,65
469,04	6283,68
469,15	3927,81
469,26	3535,95
469,37	3919,44
469,48	5694,54
469,59	4169,61
469,70	3058,45
469,81	4013,91
469,92	2723,54
470,03	4925,75
470,14	3112,91
470,25	5199,86
470,36	4103,17
470,47	2874,50
470,58	2907,27
470,69	4948,57
470,80	5060,88
470,91	3248,73
471,02	3534,37
471,13	4227,46
471,24	4278,98
471,35	3553,13
471,46	6105,60
471,56	5191,95
471,67	5457,48
471,78	5910,58
471,89	2730,10
472,00	3325,11
472,11	4743,15
472,22	5282,57
472,33	3840,35
472,44	4193,34
472,55	3435,62
472,66	3894,36
472,77	3689,17
472,88	7237,78
472,99	5329,35
473,10	2862,98
473,21	3623,18
473,32	3683,07
473,42	2973,93
473,53	3187,26
473,64	4313,78
473,75	4455,25
473,86	4098,88
473,97	4457,74
474,08	4445,31
474,19	5290,48
474,30	7262,18
474,41	4617,05
474,52	3559,23
474,62	4171,87
474,73	3346,80
474,84	6851,80
474,95	4795,13
475,06	4838,97
475,17	3192,23
475,28	2708,63
475,39	4030,18
475,50	3184,55
475,60	2949,75
475,71	3146,81
475,82	5236,70
475,93	3255,51
476,04	5814,76
476,15	3805,32
476,26	4475,81
476,37	3433,58
476,47	3489,40
476,58	3432,00
476,69	2730,78
476,80	2794,50
476,91	3709,73
477,02	4146,33
477,13	3998,54
477,23	3274,72
477,34	4171,42
477,45	4383,39
477,56	3614,82
477,67	3537,76
477,78	4071,53
477,89	3935,94
477,99	3488,27
478,10	4921,23
478,21	4535,47
478,32	4084,86
478,43	3584,76
478,54	6715,30
478,64	4440,79
478,75	3937,75
478,86	3376,86
478,97	3927,35
479,08	3707,47
479,18	3163,98
479,29	3507,25
479,40	2986,81
479,51	2640,61
479,62	3323,75
479,72	3408,05
479,83	2872,47
479,94	4361,69
480,05	4431,97
480,16	3141,16
480,26	4333,22
480,37	3056,19
480,48	4926,65
480,59	3930,29
480,70	3945,66
480,80	3688,04
480,91	3168,96
481,02	2848,51
481,13	4223,39
481,24	3986,79
481,34	3006,25
481,45	6921,40
481,56	3505,90
481,67	3571,21
481,77	3472,68
481,88	3370,08
481,99	4954,22
482,10	4369,15
482,20	10755,65
482,31	3571,21
482,42	4525,53
482,53	3363,53
482,63	5872,39
482,74	4917,61
482,85	3127,83
482,96	3249,41
483,06	2848,96
483,17	4546,32
483,28	3117,43
483,39	3815,72
483,49	4753,32
483,60	7429,18
483,71	3241,50
483,81	5090,49
483,92	3765,10
484,03	3779,34
484,14	3479,68
484,24	3068,17
484,35	3799,45
484,46	3941,59
484,57	3353,81
484,67	4460,00
484,78	3359,46
484,89	7073,71
484,99	3430,19
485,10	3850,97
485,21	4371,86
485,31	4361,02
485,42	4193,11
485,53	3406,46
485,63	3774,82
485,74	6228,54
485,85	8043,18
485,96	22634,43
486,06	3997,41
486,17	4020,69
486,28	4325,31
486,38	2829,08
486,49	4971,62
486,60	3016,87
486,70	3102,07
486,81	3510,42
486,92	3234,27
487,02	3264,77
487,13	2599,25
487,24	3450,30
487,34	3117,66
487,45	6120,97
487,56	3772,10
487,66	3072,24
487,77	4132,55
487,87	3407,37
487,98	2610,55
488,09	3639,00
488,19	2579,59
488,30	7395,51
488,41	3410,31
488,51	2803,09
488,62	3124,44
488,73	3166,92
488,83	3931,42
488,94	4519,66
489,04	6112,38
489,15	3224,10
489,26	2992,69
489,36	4240,11
489,47	3386,58
489,58	3029,30
489,68	4378,64
489,79	3144,78
489,89	3909,95
490,00	3445,79
490,11	4245,31
490,21	4244,86
490,32	2981,62
490,42	3766,23
490,53	3934,59
490,64	2939,36
490,74	3037,21
490,85	2840,83
490,95	4902,92
491,06	4387,23
491,16	3187,94
491,27	4422,48
491,38	3359,23
491,48	6863,10
491,59	7521,16
491,69	4392,43
491,80	2739,81
491,90	5688,89
492,01	2884,67
492,12	4625,87
492,22	3419,80
492,33	5255,91
492,43	3904,08
492,54	2878,79
492,64	3048,28
492,75	3927,35
492,86	4102,94
492,96	3621,83
493,07	3196,75
493,17	4124,86
493,28	4640,56
493,38	4161,70
493,49	3267,03
493,59	4480,11
493,70	4020,23
493,80	3193,59
493,91	2877,44
494,01	3145,00
494,12	3303,64
494,22	5155,57
494,33	6027,41
494,43	5720,08
494,54	6396,67
494,64	4449,83
494,75	3184,78
494,86	5314,44
494,96	3131,90
495,07	3596,52
495,17	5569,80
495,28	3555,61
495,38	3147,26
495,49	3761,26
495,59	4371,64
495,69	3785,89
495,80	5734,99
495,90	3560,36
496,01	2911,56
496,11	4237,40
496,22	3535,05
496,32	2950,66
496,43	4898,18
496,53	3423,19
496,64	3567,59
496,74	4137,97
496,85	4607,34
496,95	4040,80
497,06	3294,83
497,16	4346,78
497,27	3685,55
497,37	5463,59
497,48	2925,12
497,58	2982,97
497,68	3369,40
497,79	5030,38
497,89	3379,35
498,00	3814,81
498,10	2781,85
498,21	5133,20
498,31	3365,34
498,42	3174,15
498,52	5268,34
498,62	3813,91
498,73	3875,38
498,83	4367,12
498,94	3280,82
499,04	5305,62
499,15	3543,64
499,25	2975,51
499,35	4704,06
499,46	6155,32
499,56	7102,41
499,67	4555,59
499,77	2662,75
499,87	3001,95
499,98	3194,27
500,08	2490,78
500,19	3284,21
500,29	3820,01
500,39	4353,11
500,50	5011,62
500,60	3830,18
500,71	3851,88
500,81	3920,57
500,91	2901,84
501,02	3353,13
501,12	4434,01
501,22	2888,29
501,33	3995,60
501,43	4776,15
501,54	2769,87
501,64	3245,11
501,74	3347,26
501,85	5630,13
501,95	3089,64
502,05	3098,45
502,16	3484,43
502,26	5915,78
502,37	4598,75
502,47	4083,96
502,57	3560,36
502,68	3190,20
502,78	2959,02
502,88	5010,72
502,99	3561,94
503,09	4948,12
503,19	2954,05
503,30	2707,95
503,40	3041,73
503,50	3302,06
503,61	3775,49
503,71	3443,75
503,81	3506,80
503,92	3951,99
504,02	5058,40
504,12	8694,01
504,23	5463,81
504,33	3622,96
504,43	3514,94
504,54	4835,81
504,64	4755,58
504,74	8767,00
504,84	3942,72
504,95	3386,13
505,05	2483,55
505,15	5602,11
505,26	2862,98
505,36	3278,56
505,46	3209,41
505,56	4390,39
505,67	4390,17
505,77	4233,34
505,87	3022,52
505,98	2668,86
506,08	3286,47
506,18	3691,20
506,28	3976,17
506,39	3676,97
506,49	3334,83
506,59	3358,33
506,70	2827,27
506,80	4008,93
506,90	6482,09
507,00	2622,98
507,11	3878,09
507,21	5019,76
507,31	4505,87
507,41	3837,87
507,52	3352,23
507,62	3613,46
507,72	5266,53
507,82	5111,73
507,93	3421,15
508,03	4996,70
508,13	4109,95
508,23	3644,42
508,34	4135,71
508,44	2987,49
508,54	3064,33
508,64	3809,39
508,74	2659,82
508,85	3218,67
508,95	3593,58
509,05	2749,31
509,15	3443,30
509,26	4183,39
509,36	2987,72
509,46	3902,95
509,56	2814,84
509,66	3723,97
509,77	3009,19
509,87	3332,12
509,97	3651,66
510,07	3877,19
510,17	2515,64
510,28	7436,19
510,38	4893,20
510,48	3294,15
510,58	4347,68
510,68	3854,81
510,78	3801,26
510,89	3232,46
510,99	2586,82
511,09	4810,04
511,19	4490,50
511,29	2803,77
511,39	5033,09
511,50	5250,03
511,60	2816,20
511,70	4553,78
511,80	4867,89
511,90	5183,59
512,00	3651,20
512,11	3002,86
512,21	3876,06
512,31	2727,16
512,41	5863,35
512,51	3968,94
512,61	7013,60
512,71	3193,81
512,82	3210,76
512,92	2465,02
513,02	4287,80
513,12	3450,98
513,22	3172,57
513,32	4782,47
513,42	4021,36
513,53	5026,31
513,63	4316,27
513,73	4657,73
513,83	2779,14
513,93	4302,49
514,03	4468,81
514,13	5774,31
514,23	3063,42
514,33	3418,44
514,44	3404,20
514,54	3277,88
514,64	6312,83
514,74	3417,99
514,84	3357,88
514,94	4674,68
515,04	4546,55
515,14	3986,79
515,24	4248,48
515,34	3933,91
515,44	2490,56
515,55	2430,67
515,65	4334,35
515,75	3158,56
515,85	3415,73
515,95	4448,92
516,05	5543,81
516,15	4148,59
516,25	2823,43
516,35	3070,65
516,45	3190,65
516,55	3051,90
516,65	3522,62
516,75	6715,76
516,85	4394,01
516,95	4768,91
517,05	5160,32
517,16	2814,84
517,26	7599,35
517,36	3153,59
517,46	2615,75
517,56	3996,51
517,66	3488,50
517,76	3143,42
517,86	3148,39
517,96	4269,04
518,06	2883,77
518,16	2998,79
518,26	4117,18
518,36	2874,05
518,46	3225,23
518,56	4624,74
518,66	4987,44
518,76	3740,24
518,86	4887,33
518,96	2933,71
519,06	3203,53
519,16	4285,09
519,26	3320,14
519,36	4296,38
519,46	3841,71
519,56	5589,46
519,66	6734,96
519,76	3114,95
519,86	3181,39
519,96	3919,67
520,06	3505,44
520,16	6246,84
520,26	4484,40
520,36	3256,86
520,46	3191,10
520,56	3129,41
520,66	3386,58
520,76	3057,09
520,86	3428,38
520,96	5308,56
521,06	4273,56
521,16	2898,23
521,26	3500,47
521,35	4331,64
521,45	2718,35
521,55	3287,60
521,65	4300,45
521,75	3176,41
521,85	2464,12
521,95	3615,27
522,05	2623,66
522,15	2849,42
522,25	23829,43
522,35	5048,68
522,45	3357,43
522,55	4720,10
522,65	3682,62
522,75	2941,17
522,85	3213,02
522,94	3445,33
523,04	4435,36
523,14	3892,10
523,24	2815,97
523,34	2970,54
523,44	3869,73
523,54	3062,52
523,64	2874,27
523,74	5747,19
523,84	4488,24
523,94	4169,83
524,03	2660,04
524,13	4034,47
524,23	4028,14
524,33	2877,21
524,43	3466,35
524,53	3679,00
524,63	3101,84
524,73	3408,50
524,83	2769,19
524,92	3427,48
525,02	2599,93
525,12	4635,81
525,22	3747,25
525,32	2889,87
525,42	5181,56
525,52	3767,36
525,61	4290,06
525,71	2563,77
525,81	4105,20
525,91	2872,92
526,01	3847,13
526,11	3943,85
526,21	4655,24
526,30	4138,65
526,40	3180,48
526,50	4141,36
526,60	4659,76
526,70	4573,67
526,80	4380,00
526,89	3408,72
526,99	3027,27
527,09	3942,72
527,19	4154,92
527,29	4649,14
527,39	3637,64
527,48	4249,61
527,58	4164,64
527,68	2776,88
527,78	5382,46
527,88	6736,55
527,97	3639,68
528,07	2985,46
528,17	5043,03
528,27	5307,66
528,37	3608,94
528,46	3060,03
528,56	6086,39
528,66	4552,87
528,76	2729,87
528,86	4850,49
528,95	2989,53
529,05	3929,84
529,15	3905,43
529,25	4760,55
529,35	4915,58
529,44	4531,63
529,54	5646,41
529,64	4470,39
529,74	3484,88
529,83	2909,53
529,93	3370,98
530,03	4188,82
530,13	3857,53
530,22	5406,64
530,32	5217,04
530,42	4799,87
530,52	2506,60
530,61	4861,12
530,71	2803,32
530,81	4834,68
530,91	3611,66
531,00	3501,15
531,10	3433,13
531,20	4343,84
531,30	3648,04
531,39	4011,19
531,49	4078,99
531,59	9205,86
531,69	7616,30
531,78	6666,04
531,88	8131,99
531,98	8431,42
532,07	6672,59
532,17	7388,96
532,27	7500,59
532,37	5076,48
532,46	4830,16
532,56	4215,26
532,66	2934,39
532,75	3672,90
532,85	3968,03
532,95	3682,84
533,04	3693,24
533,14	4099,78
533,24	4555,13
533,34	3318,56
533,43	4622,93
533,53	2557,67
533,63	4320,79
533,72	3546,35
533,82	2961,50
533,92	2920,83
534,01	7817,20
534,11	8592,54
534,21	4492,54
534,30	3406,92
534,40	3619,57
534,50	2653,72
534,59	3299,12
534,69	2933,93
534,79	3957,41
534,88	5731,60
534,98	5044,16
535,08	2437,22
535,17	4569,15
535,27	3454,60
535,36	3056,19
535,46	4316,50
535,56	2812,58
535,65	4348,13
535,75	4876,71
535,85	4019,56
535,94	3242,85
536,04	3618,44
536,14	4603,95
536,23	5646,18
536,33	3249,41
536,42	3988,37
536,52	3462,51
536,62	2599,93
536,71	4138,87
536,81	3810,97
536,90	3762,61
537,00	3970,52
537,10	3107,26
537,19	3851,65
537,29	4442,14
537,38	5112,86
537,48	3764,65
537,58	3748,60
537,67	3045,80
537,77	3447,59
537,86	3300,25
537,96	5363,93
538,06	3523,52
538,15	2902,97
538,25	6468,08
538,34	7271,45
538,44	6567,51
538,53	4388,36
538,63	5450,70
538,73	4632,19
538,82	3770,07
538,92	3470,64
539,01	6693,16
539,11	2843,32
539,20	7119,36
539,30	4443,95
539,39	3259,58
539,49	4404,18
539,59	4598,75
539,68	7413,14
539,78	7245,46
539,87	4564,63
539,97	4800,33
540,06	4733,66
540,16	3080,37
540,25	4528,69
540,35	6077,13
540,44	4688,46
540,54	6328,20
540,63	4239,66
540,73	3494,60
540,82	4753,77
540,92	3362,17
541,01	5389,24
541,11	5714,43
541,20	4243,28
541,30	4262,03
541,39	4833,09
541,49	4300,00
541,58	6271,93
541,68	5928,88
541,77	4393,10
541,87	2982,75
541,96	2923,99
542,06	5149,92
542,15	4462,93
542,25	6346,50
542,34	5112,41
542,44	3372,34
542,53	3910,18
542,63	4561,91
542,72	3516,52
542,82	3488,04
542,91	4158,99
543,01	3347,71
543,10	5011,62
543,20	4010,06
543,29	4412,31
543,38	3259,80
543,48	3836,96
543,57	3567,36
543,67	3528,49
543,76	3794,93
543,86	3655,50
543,95	4654,57
544,05	6671,24
544,14	7665,79
544,23	4165,31
544,33	3610,98
544,42	4914,45
544,52	3709,06
544,61	4330,73
544,71	6322,55
544,80	7038,91
544,89	6267,18
544,99	4710,16
545,08	6053,40
545,18	3177,77
545,27	8175,83
545,36	6570,00
545,46	5402,57
545,55	4216,39
545,65	4581,57
545,74	4046,90
545,84	3342,28
545,93	4591,97
546,02	4023,62
546,12	5509,46
546,21	5314,89
546,30	4530,28
546,40	4722,59
546,49	3516,29
546,59	4636,49
546,68	3694,14
546,77	5555,33
546,87	4608,92
546,96	5561,89
547,05	4776,82
547,15	3486,01
547,24	4214,13
547,34	3562,39
547,43	4269,04
547,52	5716,01
547,62	4817,73
547,71	5196,02
547,80	5022,24
547,90	4123,28
547,99	6818,35
548,08	4702,70
548,18	2855,07
548,27	3337,99
548,36	3276,30
548,46	3632,45
548,55	3508,16
548,64	4437,85
548,74	3367,60
548,83	4427,91
548,92	6810,44
549,02	3437,65
549,11	8075,95
549,20	5114,44
549,30	3780,69
549,39	4399,66
549,48	4640,56
549,58	3203,53
549,67	4870,61
549,76	4270,40
549,85	3154,27
549,95	3977,75
550,04	5189,02
550,13	3060,71
550,23	5007,55
550,32	3449,17
550,41	3280,82
550,50	4605,08
550,60	6538,36
550,69	4114,47
550,78	2964,22
550,88	5387,88
550,97	5082,58
551,06	4075,83
551,15	4243,73
551,25	6424,24
551,34	3274,49
551,43	3924,19
551,52	4681,46
551,62	5563,02
551,71	5802,79
551,80	5472,40
551,89	4548,58
551,99	3973,00
552,08	4162,83
552,17	3625,22
552,26	4843,26
552,36	2966,02
552,45	3169,41
552,54	3011,45
552,63	4916,71
552,73	7210,88
552,82	6892,70
552,91	4528,47
553,00	8575,59
553,10	4483,50
553,19	7004,34
553,28	3890,97
553,37	5504,49
553,46	3357,20
553,56	5457,71
553,65	3445,56
553,74	3183,87
553,83	4841,23
553,92	4165,99
554,02	4778,18
554,11	4052,77
554,20	3230,65
554,29	6791,01
554,38	3863,85
554,48	4136,61
554,57	3649,85
554,66	3846,90
554,75	5071,28
554,84	5210,48
554,94	4705,64
555,03	3651,43
555,12	3124,89
555,21	3295,05
555,30	7280,71
555,39	3473,35
555,49	3734,82
555,58	4768,01
555,67	5319,86
555,76	5832,84
555,85	3363,30
555,94	3338,44
556,03	3964,87
556,13	4320,11
556,22	4083,96
556,31	4414,12
556,40	3056,42
556,49	5726,40
556,58	4201,02
556,67	4202,83
556,77	3811,43
556,86	6441,86
556,95	5323,25
557,04	6853,83
557,13	7073,26
557,22	6146,05
557,31	4806,88
557,40	4234,01
557,50	6528,64
557,59	3557,65
557,68	3603,52
557,77	6079,39
557,86	4734,56
557,95	4523,95
558,04	4258,42
558,13	4173,22
558,22	4783,83
558,31	4062,72
558,41	3258,90
558,50	5329,58
558,59	5512,17
558,68	6017,92
558,77	5619,97
558,86	3187,49
558,95	3096,87
559,04	4681,23
559,13	6185,83
559,22	3636,51
559,31	4010,29
559,40	3520,13
559,49	3824,08
559,59	5536,58
559,68	3095,29
559,77	6624,46
559,86	7327,72
559,95	4547,00
560,04	4206,44
560,13	4944,50
560,22	7849,51
560,31	4868,35
560,40	4833,32
560,49	3110,88
560,58	3845,10
560,67	3342,06
560,76	3349,52
560,85	2914,27
560,94	6089,78
561,03	3684,20
561,12	9669,80
561,21	8328,82
561,30	4339,55
561,39	4169,16
561,48	4469,26
561,57	3162,85
561,66	5218,39
561,75	7202,97
561,84	3920,12
561,93	3921,03
562,02	4162,83
562,11	3300,70
562,20	3557,19
562,29	4423,39
562,38	2887,61
562,47	5711,71
562,56	4685,53
562,65	3780,92
562,74	4170,74
562,83	9437,94
562,92	5066,99
563,01	6729,54
563,10	3336,86
563,19	4557,17
563,28	10277,02
563,37	6084,59
563,46	3321,49
563,55	3933,00
563,64	9231,62
563,73	3374,83
563,82	5004,16
563,91	7169,08
564,00	4419,54
564,09	3361,49
564,18	4614,34
564,27	3100,94
564,35	4977,72
564,44	4390,17
564,53	5618,16
564,62	5435,34
564,71	4817,50
564,80	4909,02
564,89	5193,99
564,98	13175,70
565,07	5101,79
565,16	3416,41
565,25	13097,06
565,34	3985,66
565,43	4043,96
565,51	3544,54
565,60	6835,98
565,69	3787,92
565,78	7104,90
565,87	2895,29
565,96	2607,84
566,05	5241,90
566,14	6516,44
566,23	5028,12
566,32	6911,23
566,40	5795,33
566,49	6932,47
566,58	3803,29
566,67	4392,88
566,76	3514,03
566,85	3825,44
566,94	4617,73
567,03	5343,36
567,11	4109,95
567,20	4179,78
567,29	6463,11
567,38	5299,07
567,47	3174,15
567,56	4470,84
567,65	4602,36
567,73	3347,93
567,82	3334,15
567,91	4986,08
568,00	4375,25
568,09	5565,50
568,18	3587,70
568,27	4252,77
568,35	4678,07
568,44	5522,57
568,53	4939,53
568,62	3410,98
568,71	3297,31
568,80	3776,17
568,88	5669,91
568,97	6628,75
569,06	3244,66
569,15	3854,14
569,24	5091,39
569,32	5374,32
569,41	4531,41
569,50	3230,65
569,59	3017,55
569,68	3277,43
569,76	4399,43
569,85	5208,90
569,94	6196,00
570,03	3569,17
570,12	5314,89
570,20	4463,61
570,29	5178,85
570,38	4958,51
570,47	4900,66
570,56	3086,70
570,64	3970,29
570,73	4139,78
570,82	6802,31
570,91	5726,40
570,99	3340,48
571,08	3129,86
571,17	3715,61
571,26	6156,45
571,34	3679,45
571,43	4809,59
571,52	5144,50
571,61	3363,98
571,69	3243,30
571,78	5582,68
571,87	6097,24
571,96	5842,11
572,04	5609,34
572,13	5632,39
572,22	3487,14
572,31	3174,61
572,39	3492,79
572,48	4645,08
572,57	3937,30
572,66	3513,58
572,74	2958,11
572,83	4941,79
572,92	3981,59
573,00	3231,55
573,09	5198,28
573,18	5793,75
573,27	5062,01
573,35	3526,23
573,44	3153,36
573,53	4254,58
573,61	4272,43
573,70	5076,70
573,79	3521,49
573,87	7520,48
573,96	3689,85
574,05	4169,16
574,14	4150,85
574,22	3612,33
574,31	5520,98
574,40	3131,44
574,48	4403,27
574,57	4617,73
574,66	4034,02
574,74	4208,48
574,83	6038,03
574,92	6139,05
575,00	4025,43
575,09	5960,75
575,18	3784,53
575,26	6784,68
575,35	3789,05
575,43	3888,94
575,52	5426,07
575,61	5063,60
575,69	5700,42
575,78	3735,95
575,87	7797,76
575,95	5129,36
576,04	3618,44
576,13	4804,85
576,21	3839,45
576,30	4876,93
576,38	4688,01
576,47	3961,48
576,56	3791,09
576,64	4221,81
576,73	5709,91
576,82	5354,21
576,90	4589,03
576,99	4611,63
577,07	3953,12
577,16	4172,77
577,25	5200,09
577,33	8115,94
577,42	4723,72
577,50	3682,16
577,59	5175,68
577,68	6276,90
577,76	4418,41
577,85	4245,31
577,93	4740,44
578,02	4848,91
578,10	4675,13
578,19	4658,86
578,28	4064,30
578,36	4335,93
578,45	4604,17
578,53	3445,33
578,62	3781,82
578,70	3624,09
578,79	4239,89
578,88	4576,83
578,96	3533,01
579,05	3615,27
579,13	7531,10
579,22	5119,41
579,30	4102,94
579,39	5247,09
579,47	7028,52
579,56	3969,16
579,64	12038,33
579,73	4298,19
579,82	5153,08
579,90	3641,94
579,99	3831,54
580,07	5121,45
580,16	4646,88
580,24	5707,87
580,33	3020,03
580,41	4708,80
580,50	3375,05
580,58	4347,68
580,67	4108,37
580,75	4421,80
580,84	4352,43
580,92	3409,85
581,01	7160,72
581,09	3593,35
581,18	4148,37
581,26	3659,56
581,35	3211,21
581,43	5655,44
581,52	4317,63
581,60	4929,81
581,69	4294,35
581,77	4746,99
581,86	4968,00
581,94	4137,97
582,02	5916,68
582,11	3352,91
582,19	6544,91
582,28	7881,37
582,36	7504,89
582,45	7638,90
582,53	3715,83
582,62	3823,40
582,70	3639,68
582,79	5073,09
582,87	3505,67
582,96	4950,83
583,04	6752,59
583,12	4863,60
583,21	4695,92
583,29	5019,08
583,38	5030,83
583,46	4287,80
583,55	4728,24
583,63	3425,22
583,71	5122,80
583,80	4590,84
583,88	3391,32
583,97	8703,27
584,05	5208,68
584,13	5704,71
584,22	5433,53
584,30	4042,83
584,39	5498,84
584,47	5976,57
584,55	3730,07
584,64	4767,33
584,72	4759,65
584,81	3361,49
584,89	3658,21
584,97	3575,27
585,06	3537,53
585,14	4449,83
585,23	4924,84
585,31	3202,40
585,39	4085,32
585,48	4812,08
585,56	3304,77
585,64	5061,79
585,73	4515,14
585,81	4440,34
585,90	5513,08
585,98	4015,49
586,06	4226,10
586,15	6656,55
586,23	3260,25
586,31	3796,96
586,40	3416,41
586,48	6317,80
586,56	3704,31
586,65	3251,44
586,73	3554,26
586,81	5232,18
586,90	4139,10
586,98	3116,53
587,06	3186,58
587,15	4138,65
587,23	4042,83
587,31	4351,98
587,40	3726,23
587,48	3373,70
587,56	6097,24
587,65	8718,41
587,73	5530,25
587,81	4877,16
587,90	7433,48
587,98	4530,28
588,06	3683,29
588,14	3553,35
588,23	3967,13
588,31	6635,98
588,39	5440,53
588,48	4243,50
588,56	3747,02
588,64	5027,89
588,72	4757,16
588,81	3962,83
588,89	4251,19
588,97	4508,13
589,06	6319,16
589,14	6152,61
589,22	4837,84
589,30	4216,16
589,39	3728,49
589,47	5493,41
589,55	7162,98
589,63	4785,64
589,72	4016,39
589,80	3874,25
589,88	5107,89
589,96	5751,49
590,05	4652,76
590,13	4733,66
590,21	5923,46
590,29	6581,30
590,38	5520,31
590,46	6245,03
590,54	3391,10
590,62	3758,55
590,71	5858,60
590,79	6354,18
590,87	3251,89
590,95	3530,53
591,03	4173,90
591,12	4799,20
591,20	3996,96
591,28	7193,71
591,36	5061,34
591,44	4217,29
591,53	4452,31
591,61	4382,71
591,69	3676,74
591,77	4675,36
591,85	4679,20
591,94	3714,03
592,02	3963,29
592,10	5661,32
592,18	5581,77
592,26	4449,83
592,34	3487,82
592,43	3122,18
592,51	3329,86
592,59	3711,09
592,67	5403,02
592,75	3840,35
592,84	4252,09
592,92	5866,96
593,00	3971,20
593,08	4057,75
593,16	3431,32
593,24	3857,07
593,32	5425,62
593,41	4613,66
593,49	3242,40
593,57	3808,04
593,65	3663,86
593,73	4826,54
593,81	5083,03
593,89	5872,84
593,98	4224,52
594,06	3504,77
594,14	3546,35
594,22	3769,39
594,30	3783,18
594,38	4130,51
594,46	5845,27
594,54	5703,35
594,62	5476,47
594,71	4213,22
594,79	3737,08
594,87	4292,99
594,95	4302,26
595,03	5883,24
595,11	4400,34
595,19	6905,13
595,27	4222,04
595,35	3741,37
595,43	3646,91
595,52	3935,49
595,60	4043,06
595,68	7552,57
595,76	3441,04
595,84	5191,05
595,92	3561,71
596,00	6406,39
596,08	5789,90
596,16	4530,73
596,24	4275,82
596,32	3958,09
596,40	5138,85
596,48	5094,78
596,56	5016,59
596,64	3455,95
596,73	6372,04
596,81	3812,56
596,89	4828,12
596,97	3128,28
597,05	9672,51
597,13	4098,42
597,21	3206,24
597,29	4030,63
597,37	6098,37
597,45	5041,90
597,53	3686,68
597,61	4636,94
597,69	5299,75
597,77	4153,34
597,85	3809,17
597,93	4467,00
598,01	4109,95
598,09	5491,38
598,17	4279,66
598,25	4517,17
598,33	3234,49
598,41	3945,66
598,49	3201,72
598,57	3606,91
598,65	4111,30
598,73	4371,18
598,81	4738,86
598,89	4179,55
598,97	3442,85
599,05	6265,37
599,13	4018,20
599,21	3528,72
599,29	4500,45
599,37	4024,75
599,45	3690,07
599,53	6683,67
599,61	3719,68
599,69	4883,26
599,77	4123,28
599,85	3574,82
599,93	3883,51
600,00	3375,96
600,08	5106,08
600,16	3022,75
600,24	3304,32
600,32	6602,99
600,40	7194,84
600,48	6202,55
600,56	5824,25
600,64	5801,43
600,72	4237,40
600,80	4396,72
600,88	4146,11
600,96	5973,40
601,04	3326,01
601,12	3667,25
601,19	2886,48
601,27	3796,74
601,35	4332,99
601,43	3592,67
601,51	4587,90
601,59	3645,55
601,67	3275,85
601,75	3758,77
601,83	4415,03
601,91	3106,36
601,98	3324,43
602,06	5745,16
602,14	4577,28
602,22	4891,85
602,30	5439,41
602,38	4503,84
602,46	3439,46
602,54	5861,31
602,61	4936,14
602,69	4646,66
602,77	3142,74
602,85	3404,88
602,93	3435,39
603,01	4373,90
603,09	5859,51
603,17	3880,58
603,24	4846,65
603,32	3177,54
603,40	4359,21
603,48	5114,89
603,56	3070,43
603,64	4309,04
603,71	3446,69
603,79	4165,31
603,87	5280,09
603,95	8145,55
604,03	4054,58
604,11	5723,69
604,18	4697,05
604,26	3589,06
604,34	3130,31
604,42	4576,38
604,50	3448,27
604,57	3493,92
604,65	4046,00
604,73	4205,54
604,81	4479,20
604,89	3388,39
604,96	3893,00
605,04	4898,40
605,12	3958,99
605,20	5245,29
605,28	6280,51
605,35	4391,30
605,43	4575,25
605,51	3905,21
605,59	5395,11
605,67	7325,91
605,74	4091,19
605,82	4382,94
605,90	3350,19
605,98	5053,20
606,05	4234,24
606,13	5130,71
606,21	4417,96
606,29	3995,60
606,36	4243,50
606,44	3626,80
606,52	4396,72
606,60	4014,36
606,67	3032,91
606,75	3723,29
606,83	2870,43
606,91	5464,94
606,98	3448,72
607,06	4220,23
607,14	3913,34
607,22	3889,16
607,29	3541,60
607,37	4253,00
607,45	4882,36
607,52	5235,12
607,60	5147,89
607,68	4097,75
607,76	4815,47
607,83	2886,93
607,91	4946,08
607,99	4705,41
608,06	4605,75
608,14	3800,80
608,22	4141,13
608,30	6032,61
608,37	3254,38
608,45	2756,09
608,53	4428,36
608,60	4524,40
608,68	3506,57
608,76	3873,12
608,83	5184,72
608,91	3309,74
608,99	5172,75
609,06	4529,37
609,14	5046,42
609,22	4011,65
609,29	3509,51
609,37	3081,95
609,45	5526,41
609,52	3375,50
609,60	3351,55
609,68	3531,88
609,75	4148,37
609,83	2835,18
609,91	7118,68
609,98	3838,09
610,06	3639,45
610,13	4906,54
610,21	4342,48
610,29	4355,59
610,36	2977,55
610,44	3569,85
610,52	4125,77
610,59	3236,30
610,67	3196,98
610,74	4114,92
610,82	3394,71
610,90	4634,00
610,97	3741,37
611,05	4836,48
611,13	4436,95
611,20	6468,98
611,28	3450,76
611,35	4071,76
611,43	2916,76
611,51	4629,93
611,58	4382,71
611,66	6219,27
611,73	3358,56
611,81	5973,40
611,88	4555,81
611,96	5136,14
612,04	3322,62
612,11	3203,53
612,19	6502,20
612,26	3771,20
612,34	4200,34
612,41	3921,48
612,49	2820,26
612,57	2867,04
612,64	3209,86
612,72	5957,13
612,79	7302,86
612,87	2912,69
612,94	2793,15
613,02	4216,61
613,09	3875,60
613,17	4776,60
613,24	3667,25
613,32	5241,22
613,40	3590,41
613,47	3892,55
613,55	3100,26
613,62	5459,29
613,70	5711,04
613,77	3401,04
613,85	5439,18
613,92	3850,07
614,00	3086,92
614,07	3634,48
614,15	2778,01
614,22	3063,87
614,30	4516,72
614,37	3013,03
614,45	3638,55
614,52	3268,16
614,60	3719,00
614,67	5059,98
614,75	2796,31
614,82	4751,51
614,90	3477,87
614,97	3145,45
615,05	6259,04
615,12	5169,58
615,20	4107,69
615,27	4038,31
615,34	3945,43
615,42	3159,69
615,49	3941,14
615,57	2949,75
615,64	3221,84
615,72	3472,00
615,79	3417,09
615,87	4478,30
615,94	5694,99
616,02	4267,91
616,09	5615,22
616,16	4513,10
616,24	4053,68
616,31	3043,99
616,39	6885,47
616,46	5447,31
616,54	4299,32
616,61	6496,55
616,68	3153,36
616,76	3857,07
616,83	4612,08
616,91	3424,32
616,98	3216,41
617,06	5391,50
617,13	3308,39
617,20	3517,20
617,28	3968,71
617,35	3038,34
617,43	5578,61
617,50	3497,54
617,57	3862,50
>>>>>End Processed Spectral Data<<<<<
