SpectraSuite Datei
++++++++++++++++++++++++++++++++++++
Datum: Thu Jan 01 02:56:46 CET 2004
Benutzer: H. Stützler
Dark-Spektrum vorhanden: Nein
Referenz-Spektrum vorhanden: Nein
Zahl der probierten Teilspektren: 1
Spektrometer: USB2+H04734
Integrationszeit (usec): 5000 (USB2+H04734)
Spektren Durchschnitt berechnet: 1000 (USB2+H04734)
Boxcar Glättung: 0 (USB2+H04734)
Dunkelstromkorrektur: Nein (USB2+H04734)
Puls/Lampe aktiviert: Nein (USB2+H04734)
Correct for Detector Non-linearity: Nein (USB2+H04734)
Streulichtkorrektur: Nein (USB2+H04734)
Anzahl Pixel in verarbeitetem Spektrum: 2048
>>>>>Begin Processed Spectral Data<<<<<
418,45	1343,33
418,57	1343,33
418,69	1343,33
418,80	1263,71
418,92	1248,79
419,04	1232,29
419,16	1223,81
419,28	1217,90
419,40	1211,25
419,52	1211,47
419,64	1211,41
419,75	1213,49
419,87	1218,62
419,99	1223,23
420,11	1228,95
420,23	1236,79
420,35	1245,89
420,47	1254,72
420,58	1265,26
420,70	1272,92
420,82	1281,82
420,94	1292,42
421,06	1301,76
421,18	1312,51
421,29	1322,52
421,41	1338,50
421,53	1346,19
421,65	1354,43
421,77	1362,04
421,89	1371,18
422,00	1375,77
422,12	1382,63
422,24	1387,88
422,36	1390,37
422,48	1395,55
422,59	1398,94
422,71	1402,52
422,83	1403,16
422,95	1406,04
423,07	1408,53
423,18	1408,08
423,30	1408,67
423,42	1408,00
423,54	1409,59
423,66	1409,53
423,77	1409,05
423,89	1410,36
424,01	1407,99
424,13	1409,65
424,25	1408,07
424,36	1407,83
424,48	1405,39
424,60	1406,83
424,72	1405,72
424,84	1403,78
424,95	1403,85
425,07	1402,73
425,19	1404,15
425,31	1405,69
425,42	1404,96
425,54	1405,30
425,66	1405,54
425,78	1403,48
425,89	1402,82
426,01	1401,03
426,13	1404,58
426,25	1401,55
426,36	1399,30
426,48	1401,35
426,60	1400,38
426,72	1399,26
426,83	1400,70
426,95	1401,06
427,07	1401,84
427,19	1399,31
427,30	1397,38
427,42	1394,84
427,54	1395,91
427,66	1394,94
427,77	1393,69
427,89	1395,69
428,01	1397,39
428,12	1395,32
428,24	1397,08
428,36	1398,99
428,48	1397,44
428,59	1398,07
428,71	1399,40
428,83	1400,45
428,94	1398,20
429,06	1402,09
429,18	1400,59
429,30	1401,33
429,41	1400,97
429,53	1404,31
429,65	1405,50
429,76	1407,44
429,88	1406,54
430,00	1405,62
430,11	1404,17
430,23	1402,79
430,35	1404,42
430,47	1403,57
430,58	1405,33
430,70	1409,49
430,82	1408,39
430,93	1410,68
431,05	1410,49
431,17	1412,68
431,28	1413,34
431,40	1414,46
431,52	1418,11
431,63	1419,23
431,75	1419,80
431,87	1424,20
431,98	1426,39
432,10	1428,81
432,22	1433,17
432,33	1437,63
432,45	1441,10
432,56	1445,60
432,68	1456,94
432,80	1461,61
432,91	1465,84
433,03	1470,30
433,15	1474,07
433,26	1482,54
433,38	1493,60
433,50	1503,91
433,61	1514,59
433,73	1524,94
433,84	1540,44
433,96	1576,59
434,08	1642,17
434,19	1746,52
434,31	1886,33
434,43	2088,24
434,54	2438,84
434,66	2954,69
434,77	3640,63
434,89	4548,10
435,01	5968,62
435,12	7952,95
435,24	10853,17
435,35	12873,39
435,47	14094,97
435,59	13251,87
435,70	11641,92
435,82	9222,18
435,93	6115,84
436,05	3352,40
436,17	1920,83
436,28	1609,85
436,40	1534,01
436,51	1502,98
436,63	1482,51
436,74	1467,97
436,86	1459,19
436,98	1451,64
437,09	1445,93
437,21	1442,34
437,32	1439,06
437,44	1435,98
437,55	1433,59
437,67	1432,52
437,79	1427,32
437,90	1424,74
438,02	1423,90
438,13	1426,58
438,25	1420,38
438,36	1416,25
438,48	1418,30
438,59	1415,47
438,71	1416,39
438,83	1412,11
438,94	1412,78
439,06	1412,73
439,17	1410,36
439,29	1412,02
439,40	1410,04
439,52	1409,47
439,63	1409,43
439,75	1409,54
439,86	1408,91
439,98	1407,96
440,09	1407,41
440,21	1407,73
440,32	1407,60
440,44	1406,63
440,55	1407,90
440,67	1407,24
440,78	1408,08
440,90	1406,27
441,01	1405,59
441,13	1406,02
441,24	1406,14
441,36	1405,89
441,47	1405,50
441,59	1406,99
441,70	1404,09
441,82	1404,70
441,93	1404,70
442,05	1404,38
442,16	1405,77
442,28	1404,50
442,39	1404,24
442,51	1404,21
442,62	1406,43
442,74	1405,53
442,85	1403,72
442,97	1405,31
443,08	1405,75
443,20	1403,26
443,31	1403,93
443,43	1404,95
443,54	1403,88
443,66	1403,13
443,77	1405,15
443,88	1403,61
444,00	1403,33
444,11	1403,53
444,23	1403,40
444,34	1402,69
444,46	1403,05
444,57	1404,06
444,69	1404,13
444,80	1403,79
444,91	1402,37
445,03	1403,45
445,14	1401,39
445,26	1403,57
445,37	1402,02
445,49	1402,96
445,60	1403,75
445,71	1401,18
445,83	1402,47
445,94	1403,24
446,06	1400,70
446,17	1402,63
446,29	1401,78
446,40	1400,65
446,51	1403,00
446,63	1401,86
446,74	1400,96
446,86	1401,08
446,97	1402,88
447,08	1403,79
447,20	1402,20
447,31	1403,14
447,43	1400,31
447,54	1401,03
447,65	1404,24
447,77	1400,75
447,88	1401,34
448,00	1401,69
448,11	1398,76
448,22	1402,15
448,34	1400,53
448,45	1401,21
448,56	1401,36
448,68	1399,27
448,79	1401,86
448,90	1400,67
449,02	1403,74
449,13	1402,95
449,25	1402,29
449,36	1400,63
449,47	1400,86
449,59	1400,40
449,70	1403,90
449,81	1401,28
449,93	1401,76
450,04	1402,83
450,15	1403,07
450,27	1403,68
450,38	1402,28
450,49	1402,72
450,61	1405,96
450,72	1403,57
450,83	1404,57
450,95	1402,96
451,06	1402,84
451,17	1401,13
451,29	1401,55
451,40	1402,15
451,51	1402,05
451,63	1399,35
451,74	1403,14
451,85	1402,87
451,97	1399,75
452,08	1401,81
452,19	1402,73
452,31	1400,67
452,42	1402,72
452,53	1402,26
452,65	1400,91
452,76	1399,08
452,87	1402,38
452,98	1402,13
453,10	1401,84
453,21	1402,94
453,32	1399,05
453,44	1402,53
453,55	1403,03
453,66	1400,46
453,77	1401,05
453,89	1400,81
454,00	1402,13
454,11	1400,62
454,23	1402,70
454,34	1401,16
454,45	1401,76
454,56	1402,79
454,68	1402,85
454,79	1401,96
454,90	1400,67
455,01	1401,84
455,13	1400,59
455,24	1399,80
455,35	1401,56
455,46	1399,49
455,58	1401,08
455,69	1400,80
455,80	1401,90
455,91	1400,42
456,03	1401,00
456,14	1400,46
456,25	1400,54
456,36	1401,08
456,48	1401,00
456,59	1400,44
456,70	1399,82
456,81	1401,13
456,92	1401,05
457,04	1400,97
457,15	1401,43
457,26	1402,25
457,37	1401,23
457,49	1400,31
457,60	1398,47
457,71	1400,86
457,82	1401,25
457,93	1401,17
458,05	1403,71
458,16	1399,41
458,27	1402,66
458,38	1401,08
458,49	1399,99
458,61	1401,39
458,72	1403,09
458,83	1401,81
458,94	1402,92
459,05	1401,45
459,17	1402,68
459,28	1402,43
459,39	1402,73
459,50	1401,93
459,61	1402,25
459,72	1398,63
459,84	1399,95
459,95	1400,71
460,06	1402,30
460,17	1401,15
460,28	1401,80
460,39	1401,29
460,51	1401,89
460,62	1400,05
460,73	1401,63
460,84	1400,11
460,95	1400,37
461,06	1402,20
461,18	1402,14
461,29	1400,18
461,40	1401,54
461,51	1402,11
461,62	1400,42
461,73	1399,97
461,84	1400,97
461,96	1400,42
462,07	1400,23
462,18	1401,30
462,29	1403,63
462,40	1404,77
462,51	1402,07
462,62	1402,08
462,73	1402,45
462,85	1402,46
462,96	1401,12
463,07	1400,60
463,18	1400,80
463,29	1402,22
463,40	1401,20
463,51	1400,86
463,62	1401,29
463,73	1400,75
463,85	1401,27
463,96	1402,00
464,07	1400,49
464,18	1402,10
464,29	1400,40
464,40	1402,57
464,51	1400,85
464,62	1401,36
464,73	1402,10
464,84	1402,93
464,95	1401,15
465,06	1400,65
465,18	1401,43
465,29	1401,12
465,40	1401,47
465,51	1401,21
465,62	1400,91
465,73	1402,76
465,84	1401,65
465,95	1402,31
466,06	1401,74
466,17	1402,85
466,28	1403,10
466,39	1400,49
466,50	1400,21
466,61	1402,76
466,72	1401,89
466,83	1403,55
466,95	1401,86
467,06	1403,22
467,17	1401,61
467,28	1401,72
467,39	1403,28
467,50	1400,74
467,61	1399,95
467,72	1401,61
467,83	1403,90
467,94	1402,28
468,05	1402,86
468,16	1400,99
468,27	1402,40
468,38	1400,17
468,49	1403,13
468,60	1400,49
468,71	1400,65
468,82	1404,93
468,93	1404,11
469,04	1403,51
469,15	1401,75
469,26	1400,24
469,37	1401,76
469,48	1402,42
469,59	1405,44
469,70	1404,03
469,81	1405,55
469,92	1402,91
470,03	1403,98
470,14	1405,41
470,25	1403,06
470,36	1401,48
470,47	1403,08
470,58	1403,94
470,69	1402,24
470,80	1404,12
470,91	1402,94
471,02	1401,46
471,13	1402,16
471,24	1402,58
471,35	1405,26
471,46	1401,64
471,56	1403,88
471,67	1402,95
471,78	1404,43
471,89	1401,84
472,00	1403,14
472,11	1400,91
472,22	1403,19
472,33	1402,63
472,44	1402,38
472,55	1404,01
472,66	1403,56
472,77	1401,91
472,88	1404,07
472,99	1403,51
473,10	1401,91
473,21	1405,03
473,32	1403,81
473,42	1406,16
473,53	1402,56
473,64	1404,18
473,75	1401,49
473,86	1403,38
473,97	1405,19
474,08	1403,21
474,19	1404,12
474,30	1402,92
474,41	1403,71
474,52	1404,39
474,62	1402,29
474,73	1404,74
474,84	1403,87
474,95	1403,12
475,06	1403,13
475,17	1403,47
475,28	1403,18
475,39	1402,22
475,50	1402,54
475,60	1402,83
475,71	1402,38
475,82	1403,93
475,93	1404,27
476,04	1403,31
476,15	1402,21
476,26	1404,14
476,37	1404,50
476,47	1406,19
476,58	1404,33
476,69	1402,34
476,80	1402,28
476,91	1403,21
477,02	1404,96
477,13	1404,96
477,23	1404,40
477,34	1404,85
477,45	1404,37
477,56	1406,04
477,67	1403,63
477,78	1403,73
477,89	1403,75
477,99	1404,82
478,10	1406,13
478,21	1404,34
478,32	1403,23
478,43	1405,41
478,54	1406,93
478,64	1403,01
478,75	1404,30
478,86	1404,70
478,97	1405,49
479,08	1406,31
479,18	1406,92
479,29	1406,09
479,40	1405,93
479,51	1403,97
479,62	1404,08
479,72	1405,66
479,83	1403,78
479,94	1405,20
480,05	1406,13
480,16	1405,76
480,26	1406,38
480,37	1405,45
480,48	1406,03
480,59	1407,51
480,70	1406,43
480,80	1404,56
480,91	1405,04
481,02	1405,88
481,13	1407,20
481,24	1403,64
481,34	1405,16
481,45	1406,84
481,56	1405,39
481,67	1404,60
481,77	1405,52
481,88	1406,65
481,99	1406,67
482,10	1406,51
482,20	1408,03
482,31	1406,81
482,42	1407,16
482,53	1405,89
482,63	1406,39
482,74	1407,16
482,85	1405,63
482,96	1404,62
483,06	1405,92
483,17	1406,65
483,28	1407,38
483,39	1407,36
483,49	1405,77
483,60	1406,15
483,71	1407,06
483,81	1408,02
483,92	1407,84
484,03	1406,56
484,14	1406,88
484,24	1407,22
484,35	1408,82
484,46	1408,45
484,57	1405,71
484,67	1405,67
484,78	1405,47
484,89	1406,91
484,99	1408,48
485,10	1409,20
485,21	1407,72
485,31	1407,75
485,42	1407,12
485,53	1408,98
485,63	1408,48
485,74	1408,26
485,85	1409,40
485,96	1410,09
486,06	1407,94
486,17	1407,61
486,28	1407,18
486,38	1407,14
486,49	1406,45
486,60	1407,27
486,70	1407,96
486,81	1405,51
486,92	1407,98
487,02	1407,43
487,13	1406,36
487,24	1408,28
487,34	1409,13
487,45	1410,20
487,56	1408,42
487,66	1408,78
487,77	1408,91
487,87	1407,71
487,98	1409,04
488,09	1408,49
488,19	1410,00
488,30	1407,19
488,41	1410,22
488,51	1409,35
488,62	1409,70
488,73	1410,92
488,83	1410,07
488,94	1409,12
489,04	1410,26
489,15	1411,99
489,26	1412,15
489,36	1409,91
489,47	1409,91
489,58	1410,17
489,68	1410,28
489,79	1409,39
489,89	1409,66
490,00	1411,21
490,11	1411,19
490,21	1413,79
490,32	1411,90
490,42	1415,00
490,53	1417,79
490,64	1423,15
490,74	1432,10
490,85	1445,68
490,95	1467,62
491,06	1504,34
491,16	1542,49
491,27	1567,29
491,38	1572,99
491,48	1566,28
491,59	1553,02
491,69	1522,29
491,80	1480,81
491,90	1446,05
492,01	1424,83
492,12	1415,00
492,22	1413,07
492,33	1411,71
492,43	1409,60
492,54	1409,81
492,64	1411,48
492,75	1414,35
492,86	1412,81
492,96	1411,93
493,07	1411,88
493,17	1413,26
493,28	1411,43
493,38	1411,38
493,49	1411,36
493,59	1410,31
493,70	1411,09
493,80	1410,64
493,91	1409,07
494,01	1410,57
494,12	1409,34
494,22	1411,71
494,33	1412,42
494,43	1411,69
494,54	1410,39
494,64	1411,17
494,75	1410,20
494,86	1410,52
494,96	1409,34
495,07	1409,77
495,17	1411,91
495,28	1412,72
495,38	1411,21
495,49	1411,71
495,59	1410,75
495,69	1411,76
495,80	1411,24
495,90	1411,74
496,01	1412,79
496,11	1412,39
496,22	1412,25
496,32	1412,18
496,43	1410,98
496,53	1411,78
496,64	1411,70
496,74	1412,83
496,85	1413,99
496,95	1411,17
497,06	1412,72
497,16	1409,58
497,27	1412,03
497,37	1410,94
497,48	1410,29
497,58	1410,06
497,68	1412,58
497,79	1412,18
497,89	1413,58
498,00	1410,26
498,10	1413,27
498,21	1411,69
498,31	1414,25
498,42	1412,34
498,52	1411,69
498,62	1413,72
498,73	1413,02
498,83	1412,87
498,94	1413,42
499,04	1412,88
499,15	1412,18
499,25	1413,03
499,35	1414,74
499,46	1414,38
499,56	1412,01
499,67	1411,12
499,77	1413,03
499,87	1413,51
499,98	1412,00
500,08	1411,51
500,19	1412,02
500,29	1414,11
500,39	1414,47
500,50	1414,37
500,60	1412,73
500,71	1411,87
500,81	1411,80
500,91	1414,66
501,02	1412,55
501,12	1413,62
501,22	1412,06
501,33	1412,41
501,43	1413,84
501,54	1412,59
501,64	1413,50
501,74	1413,27
501,85	1414,47
501,95	1415,15
502,05	1414,66
502,16	1415,08
502,26	1416,69
502,37	1417,12
502,47	1415,01
502,57	1415,04
502,68	1414,09
502,78	1413,44
502,88	1414,91
502,99	1414,48
503,09	1415,32
503,19	1414,67
503,30	1413,54
503,40	1414,42
503,50	1414,93
503,61	1414,04
503,71	1416,36
503,81	1415,25
503,92	1414,64
504,02	1415,12
504,12	1414,62
504,23	1414,89
504,33	1413,33
504,43	1413,66
504,54	1413,89
504,64	1415,56
504,74	1416,20
504,84	1414,20
504,95	1415,49
505,05	1415,00
505,15	1418,56
505,26	1414,60
505,36	1415,84
505,46	1413,12
505,56	1414,32
505,67	1414,95
505,77	1414,99
505,87	1413,37
505,98	1414,81
506,08	1415,02
506,18	1416,80
506,28	1415,86
506,39	1414,04
506,49	1414,04
506,59	1413,88
506,70	1413,85
506,80	1416,40
506,90	1415,12
507,00	1414,99
507,11	1414,61
507,21	1416,96
507,31	1416,21
507,41	1415,06
507,52	1413,54
507,62	1415,42
507,72	1415,00
507,82	1415,46
507,93	1417,45
508,03	1416,53
508,13	1415,29
508,23	1414,76
508,34	1415,69
508,44	1415,08
508,54	1415,44
508,64	1415,15
508,74	1416,46
508,85	1414,04
508,95	1415,28
509,05	1418,41
509,15	1417,03
509,26	1414,77
509,36	1416,08
509,46	1417,22
509,56	1417,82
509,66	1416,72
509,77	1417,25
509,87	1419,49
509,97	1416,79
510,07	1416,79
510,17	1417,36
510,28	1418,19
510,38	1416,73
510,48	1418,23
510,58	1418,46
510,68	1419,09
510,78	1416,25
510,89	1418,57
510,99	1419,06
511,09	1416,76
511,19	1417,09
511,29	1417,52
511,39	1416,85
511,50	1418,89
511,60	1417,15
511,70	1417,82
511,80	1417,08
511,90	1417,86
512,00	1417,79
512,11	1418,19
512,21	1418,14
512,31	1419,22
512,41	1415,77
512,51	1418,50
512,61	1418,77
512,71	1418,89
512,82	1416,38
512,92	1417,57
513,02	1417,62
513,12	1417,12
513,22	1418,90
513,32	1417,81
513,42	1417,50
513,53	1416,25
513,63	1418,88
513,73	1418,64
513,83	1417,74
513,93	1418,12
514,03	1418,78
514,13	1421,54
514,23	1420,24
514,33	1418,18
514,44	1417,99
514,54	1418,75
514,64	1420,48
514,74	1418,98
514,84	1418,81
514,94	1418,12
515,04	1419,24
515,14	1418,19
515,24	1420,34
515,34	1420,01
515,44	1418,92
515,55	1421,00
515,65	1421,00
515,75	1419,34
515,85	1419,64
515,95	1420,68
516,05	1420,94
516,15	1421,47
516,25	1421,78
516,35	1421,15
516,45	1418,81
516,55	1420,04
516,65	1416,54
516,75	1418,49
516,85	1420,06
516,95	1419,86
517,05	1418,39
517,16	1420,61
517,26	1420,35
517,36	1421,87
517,46	1419,72
517,56	1420,91
517,66	1419,80
517,76	1419,74
517,86	1419,64
517,96	1418,46
518,06	1418,47
518,16	1420,34
518,26	1423,03
518,36	1421,60
518,46	1422,09
518,56	1422,29
518,66	1421,99
518,76	1422,50
518,86	1421,47
518,96	1421,56
519,06	1420,08
519,16	1421,56
519,26	1421,58
519,36	1419,85
519,46	1423,33
519,56	1423,80
519,66	1421,93
519,76	1422,88
519,86	1420,23
519,96	1422,97
520,06	1420,24
520,16	1420,41
520,26	1421,43
520,36	1420,51
520,46	1422,30
520,56	1421,05
520,66	1420,90
520,76	1423,68
520,86	1423,09
520,96	1421,38
521,06	1421,77
521,16	1422,69
521,26	1423,16
521,35	1422,08
521,45	1422,71
521,55	1424,08
521,65	1423,06
521,75	1423,04
521,85	1426,09
521,95	1424,26
522,05	1423,44
522,15	1424,16
522,25	1426,01
522,35	1423,49
522,45	1420,78
522,55	1424,65
522,65	1424,16
522,75	1423,87
522,85	1422,41
522,94	1422,39
523,04	1425,47
523,14	1422,72
523,24	1424,36
523,34	1420,55
523,44	1423,63
523,54	1422,87
523,64	1423,90
523,74	1422,73
523,84	1424,50
523,94	1423,64
524,03	1424,77
524,13	1422,29
524,23	1425,80
524,33	1425,28
524,43	1423,93
524,53	1423,06
524,63	1423,96
524,73	1423,80
524,83	1426,05
524,92	1427,08
525,02	1424,28
525,12	1426,99
525,22	1424,39
525,32	1426,63
525,42	1423,85
525,52	1424,30
525,61	1425,34
525,71	1426,85
525,81	1426,17
525,91	1426,83
526,01	1425,17
526,11	1427,20
526,21	1426,05
526,30	1426,78
526,40	1425,54
526,50	1426,67
526,60	1424,95
526,70	1426,45
526,80	1424,12
526,89	1425,53
526,99	1426,13
527,09	1427,45
527,19	1426,11
527,29	1427,10
527,39	1427,60
527,48	1428,15
527,58	1426,48
527,68	1427,17
527,78	1428,41
527,88	1428,44
527,97	1428,32
528,07	1429,18
528,17	1427,39
528,27	1430,22
528,37	1428,56
528,46	1429,55
528,56	1429,62
528,66	1426,74
528,76	1427,12
528,86	1427,89
528,95	1428,67
529,05	1428,06
529,15	1428,94
529,25	1427,76
529,35	1428,75
529,44	1430,22
529,54	1429,78
529,64	1429,95
529,74	1428,12
529,83	1429,40
529,93	1427,19
530,03	1431,24
530,13	1429,98
530,22	1430,72
530,32	1431,03
530,42	1430,63
530,52	1430,88
530,61	1432,68
530,71	1432,36
530,81	1432,08
530,91	1428,64
531,00	1429,77
531,10	1428,84
531,20	1432,52
531,30	1432,29
531,39	1433,39
531,49	1431,09
531,59	1432,29
531,69	1432,61
531,78	1432,67
531,88	1432,43
531,98	1433,63
532,07	1431,12
532,17	1433,47
532,27	1434,53
532,37	1433,85
532,46	1433,30
532,56	1434,72
532,66	1433,33
532,75	1432,43
532,85	1433,64
532,95	1435,45
533,04	1434,08
533,14	1435,30
533,24	1434,05
533,34	1435,73
533,43	1434,47
533,53	1435,81
533,63	1437,09
533,72	1433,99
533,82	1434,66
533,92	1433,18
534,01	1434,53
534,11	1435,51
534,21	1435,38
534,30	1436,85
534,40	1435,53
534,50	1436,82
534,59	1440,57
534,69	1437,98
534,79	1440,54
534,88	1441,90
534,98	1443,62
535,08	1443,39
535,17	1443,08
535,27	1445,96
535,36	1444,03
535,46	1443,69
535,56	1442,32
535,65	1442,26
535,75	1443,89
535,85	1442,97
535,94	1444,88
536,04	1444,70
536,14	1443,37
536,23	1444,64
536,33	1446,83
536,42	1448,88
536,52	1449,92
536,62	1449,32
536,71	1452,79
536,81	1453,08
536,90	1452,47
537,00	1458,72
537,10	1453,68
537,19	1452,33
537,29	1453,11
537,38	1454,58
537,48	1453,93
537,58	1452,23
537,67	1452,09
537,77	1450,87
537,86	1450,38
537,96	1448,98
538,06	1449,59
538,15	1448,99
538,25	1449,60
538,34	1446,47
538,44	1449,11
538,53	1448,68
538,63	1446,62
538,73	1448,88
538,82	1450,22
538,92	1450,97
539,01	1453,17
539,11	1451,16
539,20	1451,81
539,30	1452,01
539,39	1450,34
539,49	1450,44
539,59	1453,01
539,68	1453,89
539,78	1455,42
539,87	1455,04
539,97	1458,88
540,06	1459,80
540,16	1459,66
540,25	1460,73
540,35	1458,89
540,44	1458,84
540,54	1463,15
540,63	1462,76
540,73	1463,07
540,82	1464,09
540,92	1464,18
541,01	1467,11
541,11	1467,94
541,20	1469,89
541,30	1473,96
541,39	1476,87
541,49	1484,24
541,58	1490,57
541,68	1495,18
541,77	1503,98
541,87	1507,82
541,96	1510,10
542,06	1512,53
542,15	1515,46
542,25	1517,73
542,34	1524,54
542,44	1523,46
542,53	1529,96
542,63	1534,10
542,72	1538,44
542,82	1542,38
542,91	1546,68
543,01	1549,94
543,10	1556,49
543,20	1559,98
543,29	1569,00
543,38	1574,62
543,48	1585,15
543,57	1596,77
543,67	1608,28
543,76	1622,52
543,86	1637,39
543,95	1653,79
544,05	1675,63
544,14	1692,21
544,23	1712,16
544,33	1729,81
544,42	1749,08
544,52	1768,79
544,61	1793,65
544,71	1823,62
544,80	1889,54
544,89	2060,49
544,99	2403,26
545,08	3011,21
545,18	4008,52
545,27	5626,62
545,36	9165,82
545,46	16248,41
545,55	26977,56
545,65	35109,16
545,74	38952,51
545,84	39890,23
545,93	39882,91
546,02	39500,68
546,12	37605,52
546,21	32602,53
546,30	22358,97
546,40	11231,00
546,49	5001,44
546,59	3180,38
546,68	2516,95
546,77	2182,96
546,87	1999,95
546,96	1891,93
547,05	1813,88
547,15	1762,24
547,24	1722,90
547,34	1690,00
547,43	1661,34
547,52	1638,77
547,62	1620,50
547,71	1606,76
547,80	1592,05
547,90	1577,96
547,99	1572,53
548,08	1562,95
548,18	1552,47
548,27	1546,50
548,36	1541,75
548,46	1533,21
548,55	1525,90
548,64	1519,12
548,74	1515,05
548,83	1510,49
548,92	1509,58
549,02	1505,49
549,11	1504,16
549,20	1501,66
549,30	1497,69
549,39	1492,70
549,48	1492,61
549,58	1488,76
549,67	1486,28
549,76	1480,56
549,85	1479,21
549,95	1478,22
550,04	1480,87
550,13	1476,77
550,23	1477,77
550,32	1475,54
550,41	1473,83
550,50	1470,85
550,60	1471,85
550,69	1468,25
550,78	1467,35
550,88	1467,53
550,97	1466,08
551,06	1467,35
551,15	1466,65
551,25	1465,25
551,34	1464,11
551,43	1464,30
551,52	1459,78
551,62	1459,64
551,71	1461,01
551,80	1460,54
551,89	1460,91
551,99	1462,36
552,08	1462,23
552,17	1460,08
552,26	1460,41
552,36	1458,61
552,45	1457,06
552,54	1459,28
552,63	1459,08
552,73	1457,23
552,82	1458,01
552,91	1454,15
553,00	1457,06
553,10	1457,31
553,19	1454,15
553,28	1455,20
553,37	1451,81
553,46	1452,71
553,56	1453,20
553,65	1453,28
553,74	1452,96
553,83	1450,72
553,92	1452,16
554,02	1452,68
554,11	1453,02
554,20	1450,98
554,29	1453,11
554,38	1453,05
554,48	1451,37
554,57	1452,06
554,66	1453,58
554,75	1448,65
554,84	1450,27
554,94	1449,34
555,03	1448,70
555,12	1448,37
555,21	1449,71
555,30	1448,30
555,39	1450,03
555,49	1452,47
555,58	1450,86
555,67	1451,17
555,76	1451,27
555,85	1448,90
555,94	1450,96
556,03	1448,87
556,13	1446,15
556,22	1445,86
556,31	1444,98
556,40	1445,34
556,49	1444,52
556,58	1443,86
556,67	1443,77
556,77	1445,16
556,86	1444,19
556,95	1445,22
557,04	1446,96
557,13	1446,99
557,22	1446,58
557,31	1446,88
557,40	1443,77
557,50	1444,04
557,59	1442,49
557,68	1442,58
557,77	1444,51
557,86	1442,17
557,95	1443,69
558,04	1443,42
558,13	1441,51
558,22	1439,85
558,31	1441,76
558,41	1441,52
558,50	1441,85
558,59	1442,07
558,68	1440,64
558,77	1441,82
558,86	1441,90
558,95	1439,84
559,04	1441,19
559,13	1440,51
559,22	1440,28
559,31	1443,15
559,40	1439,48
559,49	1440,36
559,59	1441,22
559,68	1440,88
559,77	1441,68
559,86	1440,34
559,95	1442,14
560,04	1439,78
560,13	1443,40
560,22	1444,79
560,31	1443,70
560,40	1442,63
560,49	1445,60
560,58	1441,95
560,67	1444,57
560,76	1442,11
560,85	1441,35
560,94	1439,91
561,03	1436,21
561,12	1437,98
561,21	1438,66
561,30	1437,90
561,39	1439,73
561,48	1439,77
561,57	1438,60
561,66	1438,58
561,75	1440,54
561,84	1439,70
561,93	1438,21
562,02	1438,25
562,11	1436,96
562,20	1438,92
562,29	1439,24
562,38	1439,15
562,47	1438,56
562,56	1437,70
562,65	1437,51
562,74	1438,64
562,83	1440,55
562,92	1437,24
563,01	1437,34
563,10	1438,07
563,19	1437,09
563,28	1437,70
563,37	1438,32
563,46	1437,87
563,55	1438,41
563,64	1439,12
563,73	1437,44
563,82	1440,49
563,91	1438,68
564,00	1436,91
564,09	1436,59
564,18	1436,82
564,27	1439,91
564,35	1438,70
564,44	1438,59
564,53	1439,39
564,62	1440,64
564,71	1438,94
564,80	1443,32
564,89	1439,44
564,98	1446,26
565,07	1440,54
565,16	1437,01
565,25	1441,05
565,34	1438,86
565,43	1434,74
565,51	1436,85
565,60	1437,24
565,69	1438,78
565,78	1436,83
565,87	1437,26
565,96	1435,92
566,05	1435,88
566,14	1438,10
566,23	1437,80
566,32	1438,44
566,40	1438,82
566,49	1439,20
566,58	1437,62
566,67	1438,57
566,76	1439,11
566,85	1437,56
566,94	1440,76
567,03	1436,28
567,11	1440,35
567,20	1439,05
567,29	1441,28
567,38	1441,63
567,47	1441,55
567,56	1439,21
567,65	1440,83
567,73	1440,90
567,82	1438,92
567,91	1438,20
568,00	1436,47
568,09	1438,19
568,18	1438,49
568,27	1438,08
568,35	1436,69
568,44	1439,36
568,53	1438,21
568,62	1438,58
568,71	1437,95
568,80	1437,97
568,88	1439,57
568,97	1440,33
569,06	1438,61
569,15	1439,57
569,24	1438,97
569,32	1440,24
569,41	1439,65
569,50	1437,78
569,59	1439,03
569,68	1436,68
569,76	1440,12
569,85	1440,71
569,94	1440,10
570,03	1437,95
570,12	1439,26
570,20	1440,68
570,29	1439,72
570,38	1437,80
570,47	1439,25
570,56	1441,02
570,64	1440,05
570,73	1438,73
570,82	1438,11
570,91	1438,66
570,99	1439,30
571,08	1438,02
571,17	1439,26
571,26	1441,44
571,34	1440,39
571,43	1442,06
571,52	1440,98
571,61	1440,83
571,69	1441,69
571,78	1440,06
571,87	1440,70
571,96	1442,06
572,04	1442,17
572,13	1440,49
572,22	1440,95
572,31	1441,11
572,39	1442,37
572,48	1442,82
572,57	1444,45
572,66	1444,33
572,74	1446,27
572,83	1442,87
572,92	1447,59
573,00	1446,85
573,09	1447,18
573,18	1447,12
573,27	1448,89
573,35	1448,96
573,44	1451,39
573,53	1446,79
573,61	1449,17
573,70	1451,53
573,79	1450,66
573,87	1449,92
573,96	1451,96
574,05	1451,08
574,14	1455,00
574,22	1453,63
574,31	1453,70
574,40	1455,53
574,48	1456,12
574,57	1458,85
574,66	1461,06
574,74	1461,38
574,83	1464,80
574,92	1467,04
575,00	1468,11
575,09	1471,72
575,18	1476,13
575,26	1479,35
575,35	1482,57
575,43	1485,94
575,52	1489,97
575,61	1492,25
575,69	1497,29
575,78	1505,05
575,87	1526,40
575,95	1569,54
576,04	1650,68
576,13	1804,32
576,21	2055,39
576,30	2508,25
576,38	3373,96
576,47	4612,84
576,56	5812,23
576,64	6502,41
576,73	6744,60
576,82	6769,58
576,90	6572,37
576,99	6141,60
577,07	5238,17
577,16	3994,79
577,25	2738,75
577,33	1965,59
577,42	1713,53
577,50	1623,51
577,59	1583,50
577,68	1557,71
577,76	1547,73
577,85	1542,85
577,93	1547,03
578,02	1570,04
578,10	1623,03
578,19	1735,61
578,28	1927,01
578,36	2266,10
578,45	2879,06
578,53	3943,83
578,62	5196,34
578,70	6200,11
578,79	6654,52
578,88	6786,07
578,96	6689,96
579,05	6374,90
579,13	5759,45
579,22	4702,41
579,30	3451,30
579,39	2327,06
579,47	1813,53
579,56	1645,24
579,64	1577,49
579,73	1539,11
579,82	1515,35
579,90	1501,69
579,99	1494,93
580,07	1485,47
580,16	1479,12
580,24	1476,84
580,33	1473,85
580,41	1469,52
580,50	1464,83
580,58	1462,88
580,67	1460,41
580,75	1459,77
580,84	1457,84
580,92	1455,03
581,01	1456,05
581,09	1452,30
581,18	1452,77
581,26	1450,12
581,35	1451,02
581,43	1452,41
581,52	1449,70
581,60	1448,81
581,69	1448,29
581,77	1447,51
581,86	1446,91
581,94	1448,74
582,02	1447,69
582,11	1448,56
582,19	1445,59
582,28	1445,16
582,36	1443,99
582,45	1444,16
582,53	1442,60
582,62	1442,98
582,70	1444,11
582,79	1443,19
582,87	1443,44
582,96	1446,16
583,04	1445,96
583,12	1441,61
583,21	1443,49
583,29	1441,58
583,38	1443,63
583,46	1443,09
583,55	1443,26
583,63	1443,09
583,71	1441,75
583,80	1442,41
583,88	1440,93
583,97	1441,26
584,05	1442,32
584,13	1440,08
584,22	1441,33
584,30	1441,74
584,39	1441,60
584,47	1440,76
584,55	1440,22
584,64	1441,66
584,72	1439,68
584,81	1437,76
584,89	1438,90
584,97	1437,05
585,06	1440,57
585,14	1440,95
585,23	1437,79
585,31	1441,01
585,39	1440,40
585,48	1440,39
585,56	1440,73
585,64	1442,24
585,73	1442,26
585,81	1443,13
585,90	1440,95
585,98	1442,62
586,06	1442,03
586,15	1440,73
586,23	1440,84
586,31	1439,15
586,40	1439,13
586,48	1438,16
586,56	1440,73
586,65	1436,42
586,73	1439,23
586,81	1438,41
586,90	1438,96
586,98	1438,65
587,06	1438,06
587,15	1439,38
587,23	1439,25
587,31	1437,92
587,40	1439,74
587,48	1439,49
587,56	1440,66
587,65	1438,59
587,73	1440,05
587,81	1440,25
587,90	1439,35
587,98	1440,90
588,06	1439,43
588,14	1439,45
588,23	1438,34
588,31	1440,19
588,39	1439,89
588,48	1439,02
588,56	1438,76
588,64	1441,18
588,72	1441,86
588,81	1441,56
588,89	1440,26
588,97	1440,03
589,06	1441,87
589,14	1438,72
589,22	1438,72
589,30	1435,40
589,39	1438,82
589,47	1440,55
589,55	1438,55
589,63	1437,04
589,72	1439,79
589,80	1436,52
589,88	1438,31
589,96	1437,72
590,05	1436,69
590,13	1437,94
590,21	1436,47
590,29	1435,17
590,38	1437,30
590,46	1436,45
590,54	1437,81
590,62	1438,31
590,71	1437,23
590,79	1439,55
590,87	1440,11
590,95	1441,16
591,03	1440,44
591,12	1438,11
591,20	1440,07
591,28	1442,10
591,36	1439,87
591,44	1439,00
591,53	1437,31
591,61	1436,37
591,69	1436,97
591,77	1436,99
591,85	1435,49
591,94	1437,77
592,02	1437,95
592,10	1438,87
592,18	1437,97
592,26	1437,52
592,34	1435,99
592,43	1438,16
592,51	1438,86
592,59	1439,39
592,67	1439,56
592,75	1437,11
592,84	1437,31
592,92	1440,07
593,00	1438,24
593,08	1436,88
593,16	1437,48
593,24	1436,07
593,32	1436,94
593,41	1437,51
593,49	1434,41
593,57	1435,25
593,65	1437,23
593,73	1438,72
593,81	1436,56
593,89	1437,05
593,98	1437,70
594,06	1435,94
594,14	1438,14
594,22	1436,41
594,30	1437,98
594,38	1440,36
594,46	1438,11
594,54	1437,67
594,62	1433,87
594,71	1433,62
594,79	1436,80
594,87	1436,69
594,95	1437,94
595,03	1435,81
595,11	1436,16
595,19	1437,58
595,27	1438,86
595,35	1438,18
595,43	1435,78
595,52	1437,54
595,60	1436,19
595,68	1436,85
595,76	1438,19
595,84	1435,89
595,92	1437,65
596,00	1436,00
596,08	1435,63
596,16	1437,11
596,24	1435,35
596,32	1436,72
596,40	1437,96
596,48	1437,84
596,56	1436,27
596,64	1436,43
596,73	1439,92
596,81	1438,96
596,89	1436,91
596,97	1435,62
597,05	1439,72
597,13	1439,44
597,21	1435,43
597,29	1434,90
597,37	1438,09
597,45	1435,42
597,53	1435,01
597,61	1435,95
597,69	1436,77
597,77	1437,23
597,85	1437,81
597,93	1439,48
598,01	1435,79
598,09	1436,41
598,17	1437,53
598,25	1436,08
598,33	1437,70
598,41	1436,49
598,49	1437,27
598,57	1437,98
598,65	1439,83
598,73	1436,30
598,81	1439,40
598,89	1438,30
598,97	1437,97
599,05	1439,21
599,13	1436,20
599,21	1438,19
599,29	1438,21
599,37	1439,75
599,45	1436,19
599,53	1437,82
599,61	1436,76
599,69	1439,68
599,77	1437,76
599,85	1437,01
599,93	1437,57
600,00	1438,20
600,08	1436,79
600,16	1437,36
600,24	1439,36
600,32	1438,70
600,40	1436,04
600,48	1438,38
600,56	1437,48
600,64	1438,94
600,72	1438,41
600,80	1437,81
600,88	1438,73
600,96	1436,40
601,04	1438,24
601,12	1437,31
601,19	1434,88
601,27	1437,51
601,35	1437,88
601,43	1439,37
601,51	1436,80
601,59	1435,11
601,67	1437,07
601,75	1438,00
601,83	1438,15
601,91	1434,88
601,98	1437,03
602,06	1436,89
602,14	1436,34
602,22	1437,36
602,30	1440,59
602,38	1439,17
602,46	1437,08
602,54	1438,63
602,61	1440,57
602,69	1441,64
602,77	1442,75
602,85	1442,89
602,93	1445,32
603,01	1445,55
603,09	1446,49
603,17	1447,25
603,24	1446,87
603,32	1448,53
603,40	1445,06
603,48	1441,41
603,56	1440,84
603,64	1438,73
603,71	1439,95
603,79	1438,26
603,87	1439,16
603,95	1442,48
604,03	1440,47
604,11	1439,98
604,18	1440,65
604,26	1441,46
604,34	1440,18
604,42	1442,68
604,50	1440,60
604,57	1439,78
604,65	1440,58
604,73	1436,81
604,81	1439,25
604,89	1438,04
604,96	1437,46
605,04	1439,70
605,12	1439,38
605,20	1437,99
605,28	1437,89
605,35	1437,94
605,43	1440,65
605,51	1436,39
605,59	1439,43
605,67	1440,92
605,74	1440,27
605,82	1439,44
605,90	1439,19
605,98	1438,68
606,05	1441,15
606,13	1439,17
606,21	1438,44
606,29	1438,25
606,36	1438,52
606,44	1437,68
606,52	1438,85
606,60	1437,65
606,67	1438,07
606,75	1437,65
606,83	1437,91
606,91	1437,84
606,98	1442,19
607,06	1439,64
607,14	1440,73
607,22	1440,18
607,29	1439,27
607,37	1439,96
607,45	1439,60
607,52	1439,76
607,60	1438,16
607,68	1438,90
607,76	1437,10
607,83	1437,90
607,91	1437,30
607,99	1437,77
608,06	1435,40
608,14	1439,85
608,22	1437,82
608,30	1438,55
608,37	1435,35
608,45	1437,04
608,53	1436,74
608,60	1436,06
608,68	1437,50
608,76	1439,25
608,83	1436,12
608,91	1439,57
608,99	1436,37
609,06	1435,93
609,14	1438,10
609,22	1438,36
609,29	1437,90
609,37	1438,51
609,45	1438,96
609,52	1437,10
609,60	1437,89
609,68	1439,57
609,75	1437,11
609,83	1438,94
609,91	1440,95
609,98	1436,07
610,06	1438,49
610,13	1438,61
610,21	1438,57
610,29	1438,33
610,36	1439,62
610,44	1439,06
610,52	1441,20
610,59	1437,54
610,67	1439,27
610,74	1437,47
610,82	1437,00
610,90	1438,03
610,97	1437,84
611,05	1437,16
611,13	1438,06
611,20	1438,14
611,28	1437,81
611,35	1438,24
611,43	1438,32
611,51	1439,36
611,58	1438,42
611,66	1439,19
611,73	1437,15
611,81	1441,07
611,88	1438,39
611,96	1439,70
612,04	1441,58
612,11	1438,45
612,19	1442,02
612,26	1442,96
612,34	1444,23
612,41	1440,72
612,49	1440,88
612,57	1440,39
612,64	1441,42
612,72	1441,38
612,79	1439,27
612,87	1437,95
612,94	1437,75
613,02	1437,72
613,09	1435,88
613,17	1439,62
613,24	1436,13
613,32	1437,08
613,40	1435,72
613,47	1437,37
613,55	1436,87
613,62	1436,44
613,70	1436,76
613,77	1436,33
613,85	1438,27
613,92	1435,48
614,00	1436,56
614,07	1436,67
614,15	1436,62
614,22	1439,35
614,30	1436,22
614,37	1437,95
614,45	1437,32
614,52	1439,64
614,60	1438,66
614,67	1436,56
614,75	1436,19
614,82	1436,10
614,90	1435,76
614,97	1436,51
615,05	1437,96
615,12	1435,63
615,20	1436,64
615,27	1438,22
615,34	1436,73
615,42	1437,67
615,49	1437,71
615,57	1436,30
615,64	1436,14
615,72	1436,01
615,79	1434,80
615,87	1435,94
615,94	1436,97
616,02	1434,17
616,09	1434,86
616,16	1434,79
616,24	1435,15
616,31	1435,66
616,39	1436,14
616,46	1435,91
616,54	1435,23
616,61	1435,85
616,68	1434,70
616,76	1434,06
616,83	1435,53
616,91	1435,18
616,98	1434,94
617,06	1436,95
617,13	1436,10
617,20	1434,92
617,28	1436,48
617,35	1436,98
617,43	1438,92
617,50	1436,11
617,57	1434,91
>>>>>End Processed Spectral Data<<<<<
