SpectraSuite Datei
++++++++++++++++++++++++++++++++++++
Datum: Sun Jan 04 04:22:51 CET 2004
Benutzer: H. Stützler
Dark-Spektrum vorhanden: Nein
Referenz-Spektrum vorhanden: Nein
Zahl der probierten Teilspektren: 1
Spektrometer: USB2+H04734
Integrationszeit (usec): 20000000 (USB2+H04734)
Spektren Durchschnitt berechnet: 10 (USB2+H04734)
Boxcar Glättung: 0 (USB2+H04734)
Dunkelstromkorrektur: Nein (USB2+H04734)
Puls/Lampe aktiviert: Nein (USB2+H04734)
Correct for Detector Non-linearity: Nein (USB2+H04734)
Streulichtkorrektur: Nein (USB2+H04734)
Anzahl Pixel in verarbeitetem Spektrum: 2048
>>>>>Begin Processed Spectral Data<<<<<
418,45	1230,48
418,57	1230,48
418,69	1230,48
418,80	1160,65
418,92	1119,74
419,04	5725,95
419,16	2895,74
419,28	3027,72
419,40	2622,98
419,52	3058,00
419,64	2558,12
419,75	2676,31
419,87	2786,14
419,99	2410,56
420,11	2626,15
420,23	2837,21
420,35	3679,90
420,47	3126,02
420,58	2618,69
420,70	3262,74
420,82	3037,21
420,94	3654,37
421,06	4700,67
421,18	3740,47
421,29	3338,90
421,41	2795,18
421,53	3286,24
421,65	4215,03
421,77	4136,39
421,89	3284,89
422,00	4961,23
422,12	3193,81
422,24	3026,14
422,36	4529,37
422,48	4437,17
422,59	3336,18
422,71	4166,44
422,83	2751,79
422,95	3015,74
423,07	3944,53
423,18	4917,16
423,30	4283,73
423,42	3043,31
423,54	3439,68
423,66	3002,18
423,77	3603,07
423,89	3180,03
424,01	2904,33
424,13	2678,80
424,25	2899,13
424,36	3687,59
424,48	3485,11
424,60	3180,03
424,72	4742,02
424,84	3138,90
424,95	4461,58
425,07	3465,90
425,19	3487,82
425,31	3671,77
425,42	2712,25
425,54	3933,23
425,66	3737,98
425,78	3031,33
425,89	3462,06
426,01	3139,13
426,13	3300,93
426,25	4256,84
426,36	3180,71
426,48	3905,89
426,60	4063,62
426,72	3231,33
426,83	4050,06
426,95	3821,59
427,07	3300,70
427,19	5459,07
427,30	3498,44
427,42	2622,30
427,54	2835,41
427,66	3179,13
427,77	2962,86
427,89	3604,65
428,01	3818,66
428,12	3900,24
428,24	2642,42
428,36	2824,78
428,48	2623,43
428,59	2744,33
428,71	3504,99
428,83	2689,42
428,94	3064,78
429,06	3035,40
429,18	3871,31
429,30	3406,69
429,41	3118,79
429,53	4222,04
429,65	4109,04
429,76	3796,74
429,88	3037,66
430,00	3698,43
430,11	4625,64
430,23	3130,09
430,35	5072,41
430,47	3083,76
430,58	2771,90
430,70	4258,19
430,82	3672,90
430,93	6938,35
431,05	3534,82
431,17	3279,46
431,28	4274,46
431,40	2899,36
431,52	5035,35
431,63	2705,24
431,75	2672,92
431,87	3250,08
431,98	4172,09
432,10	3474,71
432,22	3208,28
432,33	4513,78
432,45	3426,12
432,56	3505,22
432,68	4081,47
432,80	3078,56
432,91	4099,10
433,03	3512,90
433,15	4589,48
433,26	3610,30
433,38	3233,36
433,50	2555,41
433,61	4321,02
433,73	4832,64
433,84	3271,78
433,96	2806,71
434,08	3328,50
434,19	3182,29
434,31	3176,64
434,43	3474,71
434,54	3290,53
434,66	2589,99
434,77	2524,00
434,89	4107,24
435,01	3588,15
435,12	2798,80
435,24	3107,94
435,35	3028,85
435,47	5221,33
435,59	3376,18
435,70	2898,45
435,82	3344,54
435,93	4420,22
436,05	3512,22
436,17	3202,18
436,28	3854,59
436,40	3747,25
436,51	2775,75
436,63	3228,84
436,74	4412,99
436,86	5033,09
436,98	8231,42
437,09	3171,44
437,21	4122,15
437,32	2806,48
437,44	4036,28
437,55	3084,44
437,67	11175,30
437,79	6011,14
437,90	3777,75
438,02	2961,96
438,13	22089,59
438,25	4720,78
438,36	4168,70
438,48	3729,85
438,59	4397,62
438,71	3574,60
438,83	2929,87
438,94	2729,19
439,06	4459,32
439,17	4265,42
439,29	2950,66
439,40	3504,54
439,52	3140,48
439,63	3814,59
439,75	2778,68
439,86	2699,36
439,98	3384,32
440,09	4187,46
440,21	3290,53
440,32	3027,04
440,44	2544,34
440,55	3424,77
440,67	3073,37
440,78	4571,41
440,90	2788,85
441,01	3093,93
441,13	2839,93
441,24	3708,38
441,36	4784,96
441,47	2935,52
441,59	4184,52
441,70	2709,53
441,82	4243,28
441,93	3761,03
442,05	2558,12
442,16	2926,70
442,28	2544,11
442,39	3328,27
442,51	4098,20
442,62	3028,85
442,74	4202,15
442,85	3253,93
442,97	5354,89
443,08	4116,50
443,20	3981,59
443,31	3705,21
443,43	3041,50
443,54	3749,28
443,66	2563,10
443,77	2874,50
443,88	2585,92
444,00	3521,94
444,11	4159,66
444,23	4684,17
444,34	2807,61
444,46	2775,97
444,57	4629,03
444,69	4370,73
444,80	3770,97
444,91	5986,51
445,03	2670,66
445,14	4253,00
445,26	2549,99
445,37	2726,71
445,49	3450,08
445,60	4522,37
445,71	4331,41
445,83	3326,92
445,94	2749,31
446,06	4294,35
446,17	2665,01
446,29	2409,20
446,40	3231,78
446,51	4442,37
446,63	3324,43
446,74	2877,21
446,86	2957,66
446,97	4501,80
447,08	2888,29
447,20	3130,09
447,31	2623,21
447,43	3304,55
447,54	3469,29
447,65	3913,80
447,77	2740,72
447,88	3238,33
448,00	3582,28
448,11	2528,52
448,22	2942,97
448,34	3570,30
448,45	2475,42
448,56	3132,35
448,68	3627,48
448,79	4619,09
448,90	3888,94
449,02	3115,17
449,13	3000,37
449,25	3717,42
449,36	3005,57
449,47	3155,85
449,59	4790,38
449,70	3431,55
449,81	2948,62
449,93	3219,58
450,04	3030,43
450,15	3091,90
450,27	3229,97
450,38	3806,45
450,49	3076,08
450,61	5056,36
450,72	3205,79
450,83	4117,41
450,95	3129,18
451,06	3822,72
451,17	5042,58
451,29	4073,34
451,40	2886,03
451,51	2544,11
451,63	2660,50
451,74	4365,08
451,85	3143,87
451,97	4158,76
452,08	3363,53
452,19	2828,40
452,31	4663,15
452,42	3333,25
452,53	4920,10
452,65	4443,72
452,76	2606,49
452,87	2691,91
452,98	2803,99
453,10	3202,40
453,21	2691,45
453,32	2995,63
453,44	2679,70
453,55	2457,34
453,66	5924,59
453,77	3871,31
453,89	4008,93
454,00	5014,56
454,11	3532,56
454,23	3385,90
454,34	3412,79
454,45	2573,94
454,56	3857,75
454,68	5358,73
454,79	3303,87
454,90	3568,72
455,01	2726,71
455,13	2520,61
455,24	4789,70
455,35	2878,79
455,46	2266,38
455,58	2509,76
455,69	4603,49
455,80	3775,49
455,91	2595,64
456,03	3229,07
456,14	4093,68
456,25	2814,62
456,36	2619,59
456,48	3125,12
456,59	4558,75
456,70	2836,99
456,81	4406,66
456,92	5164,61
457,04	4017,52
457,15	5993,29
457,26	2609,42
457,37	3155,17
457,49	2836,99
457,60	2584,79
457,71	3324,88
457,82	3862,05
457,93	3414,83
458,05	4408,02
458,16	2738,01
458,27	3068,85
458,38	3387,93
458,49	3847,58
458,61	3091,44
458,72	3471,77
458,83	3168,96
458,94	3894,13
459,05	3761,71
459,17	8355,49
459,28	3004,44
459,39	3216,19
459,50	2532,59
459,61	4180,68
459,72	2608,07
459,84	2653,04
459,95	3248,73
460,06	7929,96
460,17	2846,70
460,28	3157,21
460,39	3234,04
460,51	3657,53
460,62	3161,05
460,73	3110,88
460,84	2303,89
460,95	4714,00
461,06	5089,36
461,18	4666,54
461,29	4518,75
461,40	3372,11
461,51	3658,21
461,62	6207,75
461,73	3220,48
461,84	3815,49
461,96	3756,74
462,07	4055,94
462,18	2913,37
462,29	3244,43
462,40	4226,78
462,51	3191,10
462,62	4739,31
462,73	5825,61
462,85	4063,17
462,96	3895,72
463,07	4244,86
463,18	5841,88
463,29	3963,06
463,40	3033,82
463,51	2627,28
463,62	2702,30
463,73	4101,14
463,85	2754,28
463,96	3433,81
464,07	3367,37
464,18	3206,70
464,29	2632,70
464,40	4886,43
464,51	3425,45
464,62	3136,19
464,73	2570,78
464,84	3855,94
464,95	3140,26
465,06	3223,19
465,18	2415,30
465,29	3503,41
465,40	3011,45
465,51	3225,23
465,62	4002,38
465,73	3200,14
465,84	3618,44
465,95	3676,74
466,06	2933,03
466,17	3253,93
466,28	3181,61
466,39	4371,41
466,50	2524,45
466,61	2156,33
466,72	3485,33
466,83	2499,82
466,95	2642,87
467,06	2351,35
467,17	3098,68
467,28	2768,97
467,39	3133,70
467,50	3753,12
467,61	2439,71
467,72	2502,99
467,83	2599,48
467,94	3448,95
468,05	2485,36
468,16	3571,43
468,27	3294,38
468,38	2547,50
468,49	4297,29
468,60	2621,63
468,71	4474,91
468,82	4262,26
468,93	4083,96
469,04	4895,24
469,15	3190,88
469,26	2853,71
469,37	3163,98
469,48	4501,58
469,59	3398,33
469,70	2541,40
469,81	3233,59
469,92	2271,13
470,03	3939,78
470,14	2565,13
470,25	4146,78
470,36	3319,69
470,47	2381,86
470,58	2429,09
470,69	3987,47
470,80	4068,82
470,91	2698,91
471,02	2885,57
471,13	3429,29
471,24	3447,14
471,35	2915,40
471,46	4796,94
471,56	4060,01
471,67	4299,32
471,78	4668,13
471,89	2307,06
472,00	2739,36
472,11	3786,34
472,22	4216,84
472,33	3089,86
472,44	3383,87
472,55	2811,45
472,66	3173,70
472,77	3001,05
472,88	5658,61
472,99	4214,35
473,10	2391,58
473,21	2957,89
473,32	2995,18
473,42	2487,39
473,53	2669,76
473,64	3489,85
473,75	3579,11
473,86	3324,43
473,97	3594,03
474,08	3615,05
474,19	4157,40
474,30	5604,37
474,41	3695,04
474,52	2869,53
474,62	3341,61
474,73	2773,71
474,84	5308,56
474,95	3829,50
475,06	3886,00
475,17	2632,02
475,28	2282,43
475,39	3214,15
475,50	2578,24
475,60	2455,53
475,71	2609,87
475,82	4172,55
475,93	2674,96
476,04	4530,28
476,15	3033,37
476,26	3571,43
476,37	2814,39
476,47	2888,51
476,58	2827,72
476,69	2302,54
476,80	2309,54
476,91	2999,24
477,02	3320,82
477,13	3211,44
477,23	2710,21
477,34	3352,45
477,45	3563,75
477,56	2959,24
477,67	2929,87
477,78	3282,17
477,89	3195,85
477,99	2886,48
478,10	3920,12
478,21	3634,93
478,32	3290,76
478,43	2916,08
478,54	5255,23
478,64	3628,15
478,75	3172,35
478,86	2804,90
478,97	3184,78
479,08	3007,15
479,18	2575,30
479,29	2863,20
479,40	2525,81
479,51	2242,88
479,62	2715,18
479,72	2790,89
479,83	2385,70
479,94	3519,00
480,05	3516,07
480,16	2625,02
480,26	3471,77
480,37	2527,84
480,48	3937,75
480,59	3234,72
480,70	3281,95
480,80	3029,75
480,91	2630,89
481,02	2394,51
481,13	3408,72
481,24	3241,72
481,34	2525,13
481,45	5410,93
481,56	2862,52
481,67	2943,65
481,77	2844,67
481,88	2778,91
481,99	3459,34
482,10	3490,30
482,20	8416,50
482,31	2948,85
482,42	3605,78
482,53	2758,80
482,63	4627,22
482,74	3912,21
482,85	2583,43
482,96	2674,96
483,06	2372,82
483,17	3662,95
483,28	2595,19
483,39	3080,82
483,49	3815,04
483,60	5754,42
483,71	2687,39
483,81	4068,59
483,92	3041,28
484,03	3076,98
484,14	2847,38
484,24	2544,57
484,35	3085,12
484,46	3172,57
484,57	2776,42
484,67	3544,77
484,78	2771,90
484,89	5515,11
484,99	2799,02
485,10	3087,60
485,21	3574,37
485,31	3511,77
485,42	3380,70
485,53	2766,71
485,63	3081,95
485,74	4864,28
485,85	6309,89
485,96	17282,48
486,06	3314,72
486,17	3260,93
486,28	3506,35
486,38	2331,24
486,49	3985,66
486,60	2515,64
486,70	2566,71
486,81	2854,84
486,92	2641,74
487,02	2682,64
487,13	2174,18
487,24	2818,91
487,34	2592,93
487,45	4845,52
487,56	3066,13
487,66	2555,87
487,77	3346,80
487,87	2782,30
487,98	2213,28
488,09	2933,48
488,19	2167,17
488,30	5741,77
488,41	2813,03
488,51	2337,79
488,62	2593,83
488,73	2615,52
488,83	3205,57
488,94	3660,02
489,04	4780,44
489,15	2656,65
489,26	2502,76
489,36	3399,46
489,47	2814,39
489,58	2502,76
489,68	3527,82
489,79	2560,61
489,89	3188,39
490,00	2803,32
490,11	3437,65
490,21	3439,01
490,32	2492,82
490,42	3079,24
490,53	3208,50
490,64	2429,77
490,74	2526,04
490,85	2385,47
490,95	3703,86
491,06	3496,41
491,16	2653,04
491,27	3514,26
491,38	2755,86
491,48	5305,17
491,59	4862,47
491,69	3465,90
491,80	2259,15
491,90	4526,89
492,01	2424,57
492,12	3719,68
492,22	2803,09
492,33	4173,22
492,43	3156,75
492,54	2412,37
492,64	2522,65
492,75	3170,99
492,86	3297,54
492,96	2968,28
493,07	2649,87
493,17	3342,29
493,28	3731,43
493,38	3354,71
493,49	2702,98
493,59	3570,98
493,70	3267,71
493,80	2607,16
493,91	2404,68
494,01	2576,88
494,12	2706,14
494,22	4111,30
494,33	4777,95
494,43	4560,33
494,54	4995,12
494,64	3588,15
494,75	2622,53
494,86	4200,34
494,96	2574,62
495,07	2996,31
495,17	4414,57
495,28	2915,18
495,38	2573,49
495,49	3053,03
495,59	3482,39
495,69	3096,19
495,80	4538,86
495,90	2897,55
496,01	2426,15
496,11	3407,37
496,22	2907,49
496,32	2460,27
496,43	3861,59
496,53	2799,25
496,64	2908,40
496,74	3347,26
496,85	3698,21
496,95	3222,97
497,06	2701,85
497,16	3476,52
497,27	3019,81
497,37	4285,31
497,48	2442,87
497,58	2454,85
497,68	2768,74
497,79	3997,18
497,89	2781,40
498,00	3126,47
498,10	2333,27
498,21	4097,07
498,31	2787,27
498,42	2639,48
498,52	4148,37
498,62	3079,92
498,73	3109,30
498,83	3519,91
498,94	2720,61
499,04	4202,38
499,15	2905,01
499,25	2492,14
499,35	3790,86
499,46	4877,84
499,56	5550,59
499,67	3677,64
499,77	2246,72
499,87	2515,41
499,98	2647,61
500,08	2090,79
500,19	2689,42
500,29	3105,91
500,39	3490,08
500,50	3981,14
500,60	3082,86
500,71	3130,09
500,81	3199,01
500,91	2406,49
501,02	2771,90
501,12	3591,09
501,22	2444,00
501,33	3247,60
501,43	3817,75
501,54	2335,31
501,64	2655,30
501,74	2759,48
501,85	4477,85
501,95	2561,06
502,05	2572,36
502,16	2840,83
502,26	4662,93
502,37	3653,24
502,47	3281,95
502,57	2929,41
502,68	2652,81
502,78	2468,18
502,88	4025,20
502,99	2934,39
503,09	3983,62
503,19	2457,56
503,30	2294,63
503,40	2547,96
503,50	2723,77
503,61	3027,27
503,71	2834,95
503,81	2909,98
503,92	3227,26
504,02	4044,41
504,12	6729,54
504,23	4320,11
504,33	2988,85
504,43	2902,52
504,54	3862,27
504,64	3789,28
504,74	6724,79
504,84	3218,45
504,95	2778,46
505,05	2104,35
505,15	4408,70
505,26	2396,32
505,36	2739,59
505,46	2679,25
505,56	3532,79
505,67	3565,10
505,77	3457,99
505,87	2505,70
505,98	2244,46
506,08	2731,68
506,18	3030,65
506,28	3221,61
506,39	2991,79
506,49	2768,29
506,59	2747,05
506,70	2355,19
506,80	3235,40
506,90	5017,72
507,00	2231,35
507,11	3148,84
507,21	3968,48
507,31	3644,88
507,41	3108,62
507,52	2761,74
507,62	2957,66
507,72	4213,67
507,82	4118,76
507,93	2785,92
508,03	3981,82
508,13	3301,16
508,23	2971,00
508,34	3368,50
508,44	2507,73
508,54	2567,62
508,64	3112,01
508,74	2234,29
508,85	2696,20
508,95	2958,11
509,05	2366,94
509,15	2846,48
509,26	3420,93
509,36	2570,55
509,46	3204,21
509,56	2459,37
509,66	3069,07
509,77	2629,08
509,87	2892,35
509,97	3138,67
510,07	3319,23
510,17	2328,30
510,28	6036,00
510,38	4209,15
510,48	3012,35
510,58	3747,25
510,68	3457,76
510,78	3406,69
510,89	2960,83
510,99	2492,36
511,09	4127,80
511,19	3921,93
511,29	2615,07
511,39	4198,08
511,50	4409,15
511,60	2501,63
511,70	3826,34
511,80	4028,14
511,90	3931,65
512,00	3058,00
512,11	2573,49
512,21	3211,44
512,31	2364,01
512,41	4657,96
512,51	3278,11
512,61	5506,30
512,71	2670,21
512,82	2688,97
512,92	2116,55
513,02	3490,76
513,12	2866,37
513,22	2674,28
513,32	3846,23
513,42	3268,16
513,53	4020,91
513,63	3530,08
513,73	3794,25
513,83	2380,28
513,93	3498,89
514,03	3650,07
514,13	4637,39
514,23	2559,93
514,33	2856,42
514,44	2834,28
514,54	2745,69
514,64	5001,22
514,74	2858,00
514,84	2810,55
514,94	3775,72
515,04	3687,36
515,14	3255,96
515,24	3454,37
515,34	3269,07
515,44	2147,51
515,55	2118,36
515,65	3592,45
515,75	2649,65
515,85	2864,78
515,95	3656,85
516,05	4445,53
516,15	3423,19
516,25	2429,77
516,35	2582,53
516,45	2659,59
516,55	2585,24
516,65	2973,03
516,75	5340,42
516,85	3564,20
516,95	3929,61
517,05	4182,49
517,16	2405,59
517,26	5963,23
517,36	2711,12
517,46	2262,54
517,56	3258,67
517,66	2940,94
517,76	2670,21
517,86	2690,55
517,96	3565,56
518,06	2495,98
518,16	2593,38
518,26	3472,68
518,36	2572,14
518,46	2865,91
518,56	3949,95
518,66	4261,13
518,76	3429,06
518,86	4364,86
518,96	2972,35
519,06	3233,36
519,16	4068,14
519,26	3345,67
519,36	4014,81
519,46	3636,06
519,56	4845,97
519,66	5669,68
519,76	2893,48
519,86	2891,22
519,96	3372,79
520,06	3036,76
520,16	5037,16
520,26	3851,42
520,36	2813,94
520,46	2792,47
520,56	2727,61
520,66	2897,10
520,76	2684,00
520,86	2956,31
520,96	4375,25
521,06	3631,54
521,16	2556,32
521,26	3028,85
521,35	3686,91
521,45	2488,75
521,55	2931,00
521,65	3727,13
521,75	2914,05
521,85	2406,94
521,95	3314,94
522,05	2649,20
522,15	2990,66
522,25	11738,00
522,35	4944,73
522,45	4105,65
522,55	5680,53
522,65	5575,22
522,75	5934,31
522,85	6973,60
522,94	7992,11
523,04	9403,14
523,14	9148,69
523,24	8156,62
523,34	7780,81
523,44	7654,49
523,54	6027,41
523,64	5048,68
523,74	6398,25
523,84	4851,17
523,94	4261,58
524,03	2874,50
524,13	3741,82
524,23	3674,03
524,33	2711,34
524,43	3067,49
524,53	3220,71
524,63	2699,59
524,73	2731,00
524,83	2404,46
524,92	2905,91
525,02	2253,50
525,12	3810,97
525,22	3095,74
525,32	2438,13
525,42	4062,04
525,52	3113,59
525,61	3467,03
525,71	2202,88
525,81	3383,19
525,91	2427,96
526,01	3138,67
526,11	3221,61
526,21	3753,35
526,30	3364,21
526,40	2670,66
526,50	3366,69
526,60	3749,51
526,70	3669,73
526,80	3537,99
526,89	2813,03
526,99	2544,57
527,09	3226,58
527,19	3353,13
527,29	3768,04
527,39	3026,81
527,48	3465,45
527,58	3350,19
527,68	2336,89
527,78	4252,09
527,88	5251,84
527,97	3004,44
528,07	2479,03
528,17	4059,10
528,27	4201,70
528,37	2958,11
528,46	2522,65
528,56	4794,68
528,66	3670,41
528,76	2296,89
528,86	3938,43
528,95	2479,03
529,05	3163,08
529,15	3191,10
529,25	3827,02
529,35	3927,58
529,44	3658,89
529,54	4491,86
529,64	3578,44
529,74	2878,79
529,83	2471,57
529,93	2772,36
530,03	3404,66
530,13	3121,27
530,22	4275,37
530,32	4176,61
530,42	3802,39
530,52	2113,84
530,61	3869,05
530,71	2371,46
530,81	3881,48
530,91	2923,09
531,00	2819,36
531,10	2754,05
531,20	3363,30
531,30	2842,41
531,39	2963,99
531,49	2671,34
531,59	6113,96
531,69	4274,69
531,78	3163,98
531,88	4139,33
531,98	4428,13
532,07	3289,41
532,17	4131,19
532,27	4664,06
532,37	3465,45
532,46	3659,11
532,56	3369,18
532,66	2422,08
532,75	2979,13
532,85	3207,37
532,95	3013,71
533,04	3021,84
533,14	3328,73
533,24	3678,55
533,34	2708,40
533,43	3717,42
533,53	2169,89
533,63	3464,54
533,72	2890,55
533,82	2474,06
533,92	2441,74
534,01	6017,24
534,11	6658,58
534,21	3633,58
534,30	2834,28
534,40	2978,00
534,50	2272,93
534,59	2718,57
534,69	2450,78
534,79	3232,01
534,88	4506,77
534,98	4045,77
535,08	2070,68
535,17	3647,81
535,27	2839,93
535,36	2551,12
535,46	3490,98
535,56	2345,02
535,65	3524,65
535,75	3886,90
535,85	3251,89
535,94	2670,44
536,04	3026,14
536,14	3667,25
536,23	4503,84
536,33	2717,22
536,42	3241,95
536,52	2860,04
536,62	2231,13
536,71	3350,19
536,81	3123,31
536,90	3115,17
537,00	3249,63
537,10	2653,26
537,19	3157,66
537,29	3589,28
537,38	4180,23
537,48	3100,71
537,58	3123,99
537,67	2607,62
537,77	2909,98
537,86	2790,44
537,96	4415,25
538,06	3034,72
538,15	2599,93
538,25	5294,10
538,34	5843,24
538,44	5324,83
538,53	3741,82
538,63	4536,60
538,73	4001,93
538,82	3305,00
538,92	3139,58
539,01	5519,18
539,11	2703,21
539,20	5943,35
539,30	3965,32
539,39	3158,11
539,49	4106,33
539,59	4334,80
539,68	6658,58
539,78	6692,71
539,87	4970,49
539,97	5518,05
540,06	6038,71
540,16	5520,08
540,25	7705,33
540,35	10342,10
540,44	11256,43
540,54	15031,02
540,63	15894,95
540,73	17877,95
540,82	20276,98
540,92	19977,78
541,01	21305,43
541,11	20209,86
541,20	16846,79
541,30	14289,12
541,39	11960,82
541,49	9081,34
541,58	8907,79
541,68	7470,31
541,77	5523,02
541,87	3972,55
541,96	3624,76
542,06	4990,60
542,15	4354,24
542,25	5580,19
542,34	4551,07
542,44	3201,05
542,53	3510,42
542,63	3921,25
542,72	3116,30
542,82	3058,45
542,91	3505,90
543,01	2892,13
543,10	4123,51
543,20	3368,95
543,29	3689,39
543,38	2790,44
543,48	3240,59
543,57	3013,03
543,67	2964,22
543,76	3189,07
543,86	3137,54
543,95	3882,38
544,05	5420,65
544,14	6268,31
544,23	3763,52
544,33	3468,61
544,42	4620,22
544,52	3994,25
544,61	4763,94
544,71	6707,39
544,80	7672,79
544,89	7543,30
544,99	6793,72
545,08	8073,46
545,18	5958,71
545,27	9547,32
545,36	8009,28
545,46	6634,18
545,55	5365,06
545,65	5113,09
545,74	4203,51
545,84	3374,15
545,93	4113,11
546,02	3575,73
546,12	4607,56
546,21	4121,02
546,30	3762,61
546,40	3867,24
546,49	2974,84
546,59	3767,58
546,68	3090,31
546,77	4435,82
546,87	3711,54
546,96	4442,37
547,05	3850,52
547,15	2867,72
547,24	3414,37
547,34	2930,54
547,43	3461,38
547,52	4529,37
547,62	3834,93
547,71	4108,82
547,80	4016,17
547,90	3300,25
547,99	5276,47
548,08	3778,43
548,18	2362,20
548,27	2716,54
548,36	2671,12
548,46	2890,77
548,55	2867,72
548,64	3535,05
548,74	2750,66
548,83	3493,02
548,92	5276,47
549,02	2847,83
549,11	6185,37
549,20	4081,47
549,30	3065,68
549,39	3499,57
549,48	3715,83
549,58	2585,47
549,67	3883,51
549,76	3478,33
549,85	2576,43
549,95	3235,62
550,04	4159,89
550,13	2538,24
550,23	3987,47
550,32	2806,93
550,41	2694,62
550,50	3695,95
550,60	5109,24
550,69	3340,70
550,78	2448,98
550,88	4272,43
550,97	4020,23
551,06	3279,69
551,15	3354,04
551,25	5028,12
551,34	2683,55
551,43	3202,40
551,52	3773,23
551,62	4439,21
551,71	4646,88
551,80	4391,07
551,89	3701,82
551,99	3285,79
552,08	3404,43
552,17	3045,80
552,26	3921,93
552,36	2566,71
552,45	2686,71
552,54	2647,61
552,63	4101,36
552,73	5785,61
552,82	5693,64
552,91	3951,31
553,00	6994,39
553,10	4082,15
553,19	6096,79
553,28	3956,73
553,37	4796,48
553,46	3936,85
553,56	5880,98
553,65	4749,71
553,74	5041,22
553,83	6778,13
553,92	6883,21
554,02	7976,29
554,11	7839,12
554,20	7542,63
554,29	10684,01
554,38	8392,55
554,48	8772,88
554,57	8382,83
554,66	8517,52
554,75	9373,99
554,84	9483,82
554,94	9153,88
555,03	8348,71
555,12	7914,37
555,21	7984,42
555,30	10866,15
555,39	7548,28
555,49	7301,73
555,58	7654,94
555,67	7439,58
555,76	7418,79
555,85	5037,38
555,94	4545,87
556,03	4743,38
556,13	4729,37
556,22	4281,70
556,31	4352,43
556,40	3142,06
556,49	5001,68
556,58	3804,65
556,67	3724,42
556,77	3414,83
556,86	5293,42
556,95	4419,54
557,04	5479,18
557,13	5631,72
557,22	4945,41
557,31	3893,91
557,40	3496,18
557,50	5146,53
557,59	2942,97
557,68	2960,83
557,77	4803,26
557,86	3763,52
557,95	3619,57
558,04	3456,41
558,13	3370,76
558,22	3781,37
558,31	3269,29
558,41	2633,83
558,50	4202,38
558,59	4365,76
558,68	4695,47
558,77	4466,78
558,86	2641,29
558,95	2528,52
559,04	3734,14
559,13	4806,65
559,22	2980,49
559,31	3196,98
559,40	2860,49
559,49	3047,83
559,59	4308,36
559,68	2545,47
559,77	5153,08
559,86	5723,47
559,95	3615,50
560,04	3358,56
560,13	3906,34
560,22	6061,54
560,31	3861,82
560,40	3818,66
560,49	2540,05
560,58	3106,13
560,67	2695,97
560,76	2739,81
560,85	2378,92
560,94	4749,93
561,03	2992,46
561,12	7356,19
561,21	6367,74
561,30	3493,24
561,39	3344,09
561,48	3523,07
561,57	2583,43
561,66	4082,38
561,75	5548,33
561,84	3160,82
561,93	3161,05
562,02	3314,94
562,11	2689,65
562,20	2888,29
562,29	3511,55
562,38	2352,71
562,47	4462,93
562,56	3749,05
562,65	3043,76
562,74	3328,27
562,83	7199,36
562,92	4048,26
563,01	5168,45
563,10	2715,18
563,19	3168,50
563,28	7771,77
563,37	4758,74
563,46	2682,42
563,55	3173,25
563,64	7063,54
563,73	2742,75
563,82	3996,28
563,91	5540,19
564,00	3522,17
564,09	2746,14
564,18	3637,64
564,27	2547,50
564,35	3932,10
564,44	3483,07
564,53	4390,62
564,62	4276,05
564,71	3801,93
564,80	3865,21
564,89	4099,55
564,98	23074,42
565,07	4404,40
565,16	2791,34
565,25	9801,78
565,34	3215,96
565,43	3239,91
565,51	2910,88
565,60	5282,80
565,69	3084,21
565,78	5430,82
565,87	2378,47
565,96	2145,71
566,05	4114,02
566,14	5033,99
566,23	3945,88
566,32	5323,25
566,40	4543,38
566,49	5308,79
566,58	3063,87
566,67	3458,67
566,76	2853,94
566,85	3075,17
566,94	3647,81
567,03	4219,32
567,11	3252,12
567,20	3373,24
567,29	5004,61
567,38	4168,03
567,47	2591,12
567,56	3538,89
567,65	3679,90
567,73	2708,40
567,82	2685,81
567,91	3958,54
568,00	3453,24
568,09	4570,50
568,18	2897,55
568,27	3391,55
568,35	3650,53
568,44	4349,72
568,53	3928,48
568,62	2768,74
568,71	2679,93
568,80	3028,85
568,88	4397,17
568,97	5172,75
569,06	2668,40
569,15	3064,55
569,24	4007,80
569,32	4237,40
569,41	3565,10
569,50	2578,24
569,59	2431,12
569,68	2636,99
569,76	3446,24
569,85	4121,93
569,94	4437,40
570,03	2870,66
570,12	4156,73
570,20	3539,34
570,29	4052,55
570,38	3917,64
570,47	3905,21
570,56	2506,83
570,64	3157,43
570,73	3314,49
570,82	5237,83
570,91	4431,52
570,99	2679,03
571,08	2538,69
571,17	2949,53
571,26	4813,88
571,34	2948,85
571,43	3795,61
571,52	4045,09
571,61	2721,96
571,69	2621,40
571,78	4299,10
571,87	4734,79
571,96	4542,03
572,04	4414,12
572,13	4407,79
572,22	2813,49
572,31	2569,65
572,39	2798,34
572,48	3639,45
572,57	3122,18
572,66	2801,28
572,74	2375,98
572,83	3882,16
572,92	3137,77
573,00	2571,46
573,09	4044,87
573,18	4516,72
573,27	4197,40
573,35	2837,21
573,44	2565,58
573,53	3336,41
573,61	3373,92
573,70	3851,88
573,79	2792,69
573,87	5772,73
573,96	2947,49
574,05	3309,97
574,14	3294,83
574,22	2855,07
574,31	4296,16
574,40	2502,08
574,48	3430,87
574,57	3580,24
574,66	3178,00
574,74	3328,05
574,83	4676,49
574,92	4784,05
575,00	3206,24
575,09	4646,43
575,18	3025,91
575,26	5200,99
575,35	3005,34
575,43	3142,52
575,52	4230,62
575,61	3945,66
575,69	4425,42
575,78	2939,58
575,87	5951,26
575,95	4026,79
576,04	2869,98
576,13	3768,26
576,21	3048,51
576,30	3832,67
576,38	3731,20
576,47	3151,33
576,56	3072,01
576,64	3319,46
576,73	4441,69
576,82	4180,91
576,90	3599,23
576,99	3628,38
577,07	3140,03
577,16	3315,62
577,25	4046,22
577,33	6233,96
577,42	3724,65
577,50	2956,08
577,59	4008,93
577,68	4884,39
577,76	3553,80
577,85	3380,48
577,93	3741,14
578,02	3847,13
578,10	3536,86
578,19	3721,71
578,28	3249,18
578,36	3481,94
578,45	3679,00
578,53	2808,51
578,62	3108,62
578,70	2963,54
578,79	3652,11
578,88	3681,49
578,96	2945,01
579,05	2948,17
579,13	5874,20
579,22	4067,01
579,30	3377,99
579,39	4211,64
579,47	5583,36
579,56	3325,79
579,64	9223,49
579,73	3571,88
579,82	4173,22
579,90	3054,38
579,99	3164,89
580,07	4130,96
580,16	3783,18
580,24	4581,35
580,33	2538,01
580,41	3772,10
580,50	2817,55
580,58	3564,65
580,67	3321,04
580,75	3553,13
580,84	3481,26
580,92	2770,77
581,01	5545,62
581,09	2938,23
581,18	3287,37
581,26	2951,33
581,35	2593,15
581,43	4366,66
581,52	3430,87
581,60	3860,69
581,69	3389,29
581,77	3694,14
581,86	3882,61
581,94	3266,13
582,02	4559,88
582,11	2645,81
582,19	5026,31
582,28	6077,58
582,36	5749,45
582,45	5798,49
582,53	2968,96
582,62	3007,15
582,70	2863,20
582,79	3922,83
582,87	2813,94
582,96	3837,87
583,04	5151,05
583,12	3787,47
583,21	3656,18
583,29	3911,08
583,38	3951,76
583,46	3375,28
583,55	3679,90
583,63	2721,06
583,71	4007,80
583,80	3597,42
583,88	2635,64
583,97	6572,03
584,05	4061,81
584,13	4420,45
584,22	4168,70
584,30	3180,71
584,39	4251,64
584,47	4615,47
584,55	2924,22
584,64	3723,07
584,72	3882,84
584,81	2692,13
584,89	2867,50
584,97	2848,96
585,06	2775,97
585,14	3445,11
585,23	3835,15
585,31	2575,30
585,39	3232,91
585,48	3681,94
585,56	2639,48
585,64	3974,13
585,73	3532,11
585,81	3444,43
585,90	4264,52
585,98	3163,53
586,06	3312,68
586,15	5059,75
586,23	2585,69
586,31	2980,03
586,40	2697,10
586,48	4848,01
586,56	2933,03
586,65	2554,06
586,73	2845,57
586,81	4066,79
586,90	3261,16
586,98	2497,79
587,06	2510,67
587,15	3239,46
587,23	3221,16
587,31	3386,35
587,40	2935,29
587,48	2709,08
587,56	4662,25
587,65	6625,81
587,73	4259,10
587,81	3841,71
587,90	5654,31
587,98	3581,83
588,06	2907,27
588,14	2824,56
588,23	3145,45
588,31	5123,71
588,39	4216,84
588,48	3331,66
588,56	2932,35
588,64	3922,83
588,72	3703,63
588,81	3128,73
588,89	3318,56
588,97	3496,86
589,06	4854,34
589,14	4740,67
589,22	3752,44
589,30	3293,02
589,39	2986,81
589,47	4244,41
589,55	5456,35
589,63	3745,66
589,72	3158,79
589,80	3057,55
589,88	3995,38
589,96	4481,46
590,05	3587,02
590,13	3696,40
590,21	4669,93
590,29	5059,75
590,38	4270,62
590,46	4834,45
590,54	2689,19
590,62	2968,06
590,71	4544,29
590,79	4880,78
590,87	2577,11
590,95	2798,80
591,03	3269,07
591,12	3741,82
591,20	3173,93
591,28	5487,77
591,36	3937,52
591,44	3288,95
591,53	3495,73
591,61	3415,96
591,69	2914,50
591,77	3672,45
591,85	3631,32
591,94	2903,88
592,02	3081,73
592,10	4390,84
592,18	4332,77
592,26	3449,40
592,34	2779,81
592,43	2480,16
592,51	2623,89
592,59	2936,19
592,67	2786,37
592,75	2913,82
592,84	3329,18
592,92	4468,58
593,00	3134,61
593,08	3189,07
593,16	2711,12
593,24	3030,43
593,32	4223,39
593,41	3615,05
593,49	2611,91
593,57	3001,05
593,65	2929,64
593,73	3791,31
593,81	4001,25
593,89	4504,97
593,98	3317,88
594,06	2796,31
594,14	2811,00
594,22	2957,44
594,30	2986,81
594,38	3222,97
594,46	4514,46
594,54	4392,65
594,62	4237,63
594,71	3292,57
594,79	2951,79
594,87	3337,54
594,95	3366,69
595,03	4507,23
595,11	3420,25
595,19	5300,43
595,27	3313,13
595,35	2932,80
595,43	2877,89
595,52	3055,06
595,60	3185,45
595,68	5720,08
595,76	2759,02
595,84	4069,72
595,92	2790,21
596,00	4887,78
596,08	4493,22
596,16	3594,71
596,24	3347,71
596,32	3112,46
596,40	3944,98
596,48	3973,68
596,56	3894,36
596,64	2742,75
596,73	4944,05
596,81	2981,16
596,89	3794,25
596,97	2490,33
597,05	7303,99
597,13	3270,87
597,21	2575,30
597,29	3125,79
597,37	4706,32
597,45	3878,09
597,53	2938,00
597,61	3606,01
597,69	4143,17
597,77	3285,56
597,85	3000,37
597,93	3517,20
598,01	3218,22
598,09	4272,20
598,17	3372,57
598,25	3513,35
598,33	2575,53
598,41	3098,90
598,49	2557,45
598,57	2824,78
598,65	3208,73
598,73	3403,30
598,81	3747,70
598,89	3261,16
598,97	2703,66
599,05	4762,81
599,13	3163,31
599,21	2820,94
599,29	3538,66
599,37	3188,39
599,45	2896,87
599,53	5108,34
599,61	2883,09
599,69	3791,54
599,77	3250,31
599,85	2847,38
599,93	3065,00
600,00	2686,03
600,08	3966,22
600,16	2432,25
600,24	2638,80
600,32	5094,10
600,40	5556,69
600,48	4802,36
600,56	4540,22
600,64	4479,43
600,72	3323,30
600,80	3454,82
600,88	3287,15
600,96	4644,40
601,04	2640,61
601,12	2894,39
601,19	2334,40
601,27	2980,26
601,35	3380,02
601,43	2850,09
601,51	3597,87
601,59	2880,15
601,67	2612,59
601,75	3008,96
601,83	3455,73
601,91	2474,74
601,98	2658,46
602,06	4409,38
602,14	3592,00
602,22	3841,48
602,30	4213,90
602,38	3552,45
602,46	2717,44
602,54	4528,69
602,61	3833,35
602,69	3651,20
602,77	2515,19
602,85	2693,49
602,93	2720,83
603,01	3408,95
603,09	4484,63
603,17	3013,03
603,24	3801,93
603,32	2533,04
603,40	3432,90
603,48	3905,21
603,56	2486,49
603,64	2559,03
603,71	2662,75
603,79	3289,41
603,87	4123,73
603,95	6165,26
604,03	3187,71
604,11	4432,88
604,18	3627,25
604,26	2867,50
604,34	2501,63
604,42	3593,13
604,50	2751,79
604,57	2761,06
604,65	3156,53
604,73	3284,66
604,81	3516,52
604,89	2713,37
604,96	3069,75
605,04	3813,69
605,12	3115,17
605,20	4095,49
605,28	4797,84
605,35	3472,45
605,43	3538,44
605,51	3067,26
605,59	4201,25
605,67	5690,92
605,74	3227,94
605,82	3466,35
605,90	2676,09
605,98	3936,85
606,05	3333,02
606,13	3949,73
606,21	3431,55
606,29	3133,25
606,36	3311,78
606,44	2858,46
606,52	3402,40
606,60	3154,04
606,67	2456,43
606,75	2906,14
606,83	2316,55
606,91	4208,02
606,98	2725,80
607,06	3344,54
607,14	3095,96
607,22	3081,95
607,29	2800,15
607,37	3345,67
607,45	3740,69
607,52	4029,95
607,60	3984,75
607,68	3255,28
607,76	3782,95
607,83	2307,51
607,91	3854,36
607,99	3658,89
608,06	3560,13
608,14	3002,18
608,22	3222,97
608,30	4655,70
608,37	2590,89
608,45	2218,02
608,53	3447,14
608,60	3549,29
608,68	2770,10
608,76	3043,31
608,83	4068,82
608,91	2640,61
608,99	4064,07
609,06	3576,18
609,14	3927,13
609,22	3169,86
609,29	2798,34
609,37	2474,06
609,45	4305,20
609,52	2705,69
609,60	2694,62
609,68	2795,63
609,75	3279,69
609,83	2300,28
609,91	5441,44
609,98	2995,85
610,06	2908,85
610,13	3831,31
610,21	3403,53
610,29	3402,85
610,36	2368,30
610,44	2831,34
610,52	3211,67
610,59	2599,71
610,67	2531,23
610,74	3287,82
610,82	2708,86
610,90	3639,68
610,97	2955,63
611,05	3760,81
611,13	3444,43
611,20	5000,55
611,28	2726,26
611,35	3196,53
611,43	2348,86
611,51	3624,99
611,58	3465,90
611,66	4781,34
611,73	2661,85
611,81	4625,19
611,88	3615,72
611,96	4034,02
612,04	2636,31
612,11	2583,89
612,19	4998,74
612,26	3020,49
612,34	3311,78
612,41	3135,51
612,49	2278,81
612,57	2338,24
612,64	2583,66
612,72	4637,39
612,79	5611,60
612,87	2368,07
612,94	2251,24
613,02	3344,32
613,09	3073,59
613,17	3766,45
613,24	2930,77
613,32	4099,33
613,40	2874,50
613,47	3060,26
613,55	2510,89
613,62	4276,95
613,70	4465,65
613,77	2775,29
613,85	4175,48
613,92	3058,00
614,00	2494,62
614,07	2906,14
614,15	2256,66
614,22	2472,25
614,30	3576,63
614,37	2455,08
614,45	2915,18
614,52	2624,79
614,60	2934,61
614,67	3969,84
614,75	2284,23
614,82	3761,93
614,90	2776,20
614,97	2513,38
615,05	4844,84
615,12	4066,33
615,20	3251,89
615,27	3238,78
615,34	3130,77
615,42	2542,08
615,49	3106,36
615,57	2415,98
615,64	2595,64
615,72	2772,13
615,79	2775,75
615,87	3539,57
615,94	4424,06
616,02	3374,37
616,09	4323,73
616,16	3557,87
616,24	3276,52
616,31	2489,43
616,39	4548,13
616,46	4267,23
616,54	3409,40
616,61	5048,23
616,68	2583,89
616,76	3049,86
616,83	3664,08
616,91	2764,00
616,98	2593,38
617,06	4202,60
617,13	2685,58
617,20	2847,38
617,28	3185,68
617,35	2493,72
617,43	4362,60
617,50	2834,05
617,57	3116,30
>>>>>End Processed Spectral Data<<<<<
