SpectraSuite Datei
++++++++++++++++++++++++++++++++++++
Datum: Sun Jan 04 04:15:11 CET 2004
Benutzer: H. Stützler
Dark-Spektrum vorhanden: Nein
Referenz-Spektrum vorhanden: Nein
Zahl der probierten Teilspektren: 1
Spektrometer: USB2+H04734
Integrationszeit (usec): 20000000 (USB2+H04734)
Spektren Durchschnitt berechnet: 10 (USB2+H04734)
Boxcar Glättung: 0 (USB2+H04734)
Dunkelstromkorrektur: Nein (USB2+H04734)
Puls/Lampe aktiviert: Nein (USB2+H04734)
Correct for Detector Non-linearity: Nein (USB2+H04734)
Streulichtkorrektur: Nein (USB2+H04734)
Anzahl Pixel in verarbeitetem Spektrum: 2048
>>>>>Begin Processed Spectral Data<<<<<
418,45	1224,37
418,57	1224,37
418,69	1224,37
418,80	1158,16
418,92	1133,76
419,04	5737,93
419,16	2915,86
419,28	2989,30
419,40	2629,54
419,52	3038,56
419,64	2524,00
419,75	2680,38
419,87	2771,68
419,99	2431,35
420,11	2588,18
420,23	2867,95
420,35	3722,39
420,47	3156,98
420,58	2629,08
420,70	3269,07
420,82	2998,34
420,94	3698,66
421,06	4709,93
421,18	3770,52
421,29	3322,62
421,41	2780,72
421,53	3321,27
421,65	4215,93
421,77	4190,62
421,89	3287,15
422,00	4958,74
422,12	3187,49
422,24	3009,19
422,36	4511,52
422,48	4374,80
422,59	3342,51
422,71	4186,56
422,83	2773,49
422,95	2997,66
423,07	3915,38
423,18	4906,76
423,30	4308,14
423,42	3034,50
423,54	3433,81
423,66	3012,35
423,77	3583,63
423,89	3156,30
424,01	2900,49
424,13	2679,03
424,25	2891,90
424,36	3714,70
424,48	3509,74
424,60	3195,17
424,72	4732,30
424,84	3146,13
424,95	4485,98
425,07	3468,16
425,19	3462,28
425,31	3660,92
425,42	2731,00
425,54	3947,24
425,66	3690,30
425,78	3040,60
425,89	3489,85
426,01	3124,89
426,13	3286,47
426,25	4247,57
426,36	3218,22
426,48	3919,67
426,60	4045,09
426,72	3272,00
426,83	4090,29
426,95	3829,73
427,07	3349,74
427,19	5424,49
427,30	3511,32
427,42	2625,02
427,54	2850,77
427,66	3224,55
427,77	2977,77
427,89	3616,18
428,01	3778,88
428,12	3880,58
428,24	2616,43
428,36	2823,65
428,48	2632,02
428,59	2743,66
428,71	3509,96
428,83	2728,97
428,94	3058,22
429,06	3026,14
429,18	3886,00
429,30	3427,93
429,41	3100,48
429,53	4193,34
429,65	4100,23
429,76	3827,02
429,88	3043,99
430,00	3720,81
430,11	4596,04
430,23	3145,00
430,35	5059,53
430,47	3119,47
430,58	2769,64
430,70	4248,93
430,82	3664,99
430,93	6947,84
431,05	3517,65
431,17	3263,64
431,28	4311,07
431,40	2909,53
431,52	5017,27
431,63	2730,10
431,75	2669,76
431,87	3228,39
431,98	4184,75
432,10	3490,08
432,22	3227,71
432,33	4526,21
432,45	3396,07
432,56	3561,94
432,68	4093,68
432,80	3115,62
432,91	4118,76
433,03	3539,57
433,15	4607,56
433,26	3614,59
433,38	3261,38
433,50	2539,59
433,61	4307,23
433,73	4831,29
433,84	3259,12
433,96	2805,80
434,08	3317,88
434,19	3204,89
434,31	3182,97
434,43	3485,78
434,54	3305,68
434,66	2584,79
434,77	2544,79
434,89	4039,67
435,01	3557,42
435,12	2762,64
435,24	3120,60
435,35	3028,62
435,47	5243,25
435,59	3368,95
435,70	2891,00
435,82	3309,29
435,93	4397,62
436,05	3491,66
436,17	3176,19
436,28	3838,09
436,40	3714,25
436,51	2801,28
436,63	3215,73
436,74	4387,46
436,86	5069,02
436,98	8200,24
437,09	3185,23
437,21	4092,77
437,32	2820,04
437,44	4027,01
437,55	3050,54
437,67	11093,95
437,79	5957,81
437,90	3760,58
438,02	2920,83
438,13	22116,25
438,25	4728,01
438,36	4160,79
438,48	3752,67
438,59	4389,04
438,71	3562,62
438,83	2959,47
438,94	2758,80
439,06	4453,44
439,17	4278,08
439,29	2965,80
439,40	3445,79
439,52	3157,66
439,63	3808,71
439,75	2811,90
439,86	2710,21
439,98	3372,57
440,09	4179,55
440,21	3292,34
440,32	3035,40
440,44	2561,06
440,55	3422,96
440,67	3096,87
440,78	4545,42
440,90	2795,63
441,01	3079,47
441,13	2844,67
441,24	3726,91
441,36	4727,33
441,47	2947,72
441,59	4234,46
441,70	2704,34
441,82	4233,11
441,93	3774,82
442,05	2526,04
442,16	2937,55
442,28	2570,10
442,39	3275,62
442,51	4120,12
442,62	3023,42
442,74	4193,79
442,85	3282,17
442,97	5428,78
443,08	4080,34
443,20	3981,36
443,31	3678,77
443,43	3032,01
443,54	3734,37
443,66	2545,70
443,77	2884,67
443,88	2589,08
444,00	3495,50
444,11	4162,38
444,23	4660,89
444,34	2783,43
444,46	2796,99
444,57	4658,18
444,69	4355,14
444,80	3795,15
444,91	5973,63
445,03	2662,75
445,14	4236,27
445,26	2564,45
445,37	2727,61
445,49	3465,45
445,60	4553,55
445,71	4409,15
445,83	3326,47
445,94	2752,47
446,06	4310,62
446,17	2628,86
446,29	2399,26
446,40	3236,53
446,51	4376,38
446,63	3341,83
446,74	2906,59
446,86	2965,12
446,97	4529,37
447,08	2900,94
447,20	3119,69
447,31	2619,82
447,43	3312,23
447,54	3481,26
447,65	3905,66
447,77	2746,59
447,88	3252,80
448,00	3564,65
448,11	2599,25
448,22	2925,57
448,34	3542,73
448,45	2430,22
448,56	3125,79
448,68	3611,20
448,79	4595,36
448,90	3864,08
449,02	3127,38
449,13	3029,98
449,25	3682,62
449,36	3022,52
449,47	3113,82
449,59	4785,86
449,70	3439,46
449,81	2957,89
449,93	3205,34
450,04	2983,20
450,15	3135,06
450,27	3219,58
450,38	3816,62
450,49	3058,00
450,61	5039,64
450,72	3179,13
450,83	4085,99
450,95	3103,87
451,06	3835,38
451,17	5049,81
451,29	4049,84
451,40	2887,83
451,51	2522,65
451,63	2687,84
451,74	4386,55
451,85	3130,54
451,97	4181,13
452,08	3355,39
452,19	2840,83
452,31	4661,80
452,42	3306,13
452,53	4902,24
452,65	4435,36
452,76	2616,88
452,87	2687,61
452,98	2795,63
453,10	3223,64
453,21	2712,47
453,32	2967,61
453,44	2701,40
453,55	2463,21
453,66	5938,60
453,77	3837,87
453,89	4009,16
454,00	4978,63
454,11	3512,68
454,23	3357,65
454,34	3398,55
454,45	2546,37
454,56	3800,35
454,68	5348,56
454,79	3308,84
454,90	3558,32
455,01	2719,70
455,13	2552,48
455,24	4782,02
455,35	2879,92
455,46	2294,63
455,58	2525,81
455,69	4570,50
455,80	3766,45
455,91	2611,91
456,03	3207,83
456,14	4128,03
456,25	2811,23
456,36	2585,92
456,48	3082,86
456,59	4574,79
456,70	2829,53
456,81	4439,88
456,92	5200,09
457,04	4072,21
457,15	5914,65
457,26	2582,98
457,37	3141,16
457,49	2847,61
457,60	2593,38
457,71	3325,11
457,82	3860,69
457,93	3365,56
458,05	4388,13
458,16	2709,99
458,27	3119,01
458,38	3412,57
458,49	3832,44
458,61	3091,67
458,72	3467,25
458,83	3147,49
458,94	3874,93
459,05	3735,27
459,17	8320,23
459,28	2948,85
459,39	3224,77
459,50	2495,75
459,61	4177,74
459,72	2587,73
459,84	2678,57
459,95	3246,02
460,06	7922,73
460,17	2841,73
460,28	3178,00
460,39	3222,06
460,51	3636,51
460,62	3213,25
460,73	3151,33
460,84	2292,82
460,95	4711,74
461,06	5029,92
461,18	4611,63
461,29	4498,19
461,40	3387,26
461,51	3631,54
461,62	6167,30
461,73	3222,74
461,84	3773,01
461,96	3710,86
462,07	4032,21
462,18	2908,17
462,29	3210,76
462,40	4195,60
462,51	3147,94
462,62	4717,84
462,73	4924,84
462,85	4002,15
462,96	3886,23
463,07	4263,16
463,18	5836,00
463,29	3942,27
463,40	2983,65
463,51	2613,72
463,62	2710,21
463,73	4082,83
463,85	2765,80
463,96	3473,81
464,07	3340,70
464,18	3155,17
464,29	2630,21
464,40	4887,33
464,51	3452,79
464,62	3109,07
464,73	2548,18
464,84	3880,35
464,95	3173,70
465,06	3225,23
465,18	2389,09
465,29	3504,09
465,40	2966,93
465,51	3240,59
465,62	4002,38
465,73	3212,80
465,84	3613,01
465,95	3681,71
466,06	2943,20
466,17	3277,20
466,28	3147,49
466,39	4353,11
466,50	2510,22
466,61	2180,96
466,72	3493,47
466,83	2468,86
466,95	2643,32
467,06	2389,54
467,17	3088,05
467,28	2778,01
467,39	3084,44
467,50	3749,28
467,61	2453,49
467,72	2508,86
467,83	2578,92
467,94	3444,66
468,05	2479,71
468,16	3582,96
468,27	3313,13
468,38	2563,55
468,49	4306,33
468,60	2621,85
468,71	4469,49
468,82	4245,31
468,93	4080,34
469,04	4932,07
469,15	3186,13
469,26	2876,53
469,37	3177,77
469,48	4473,55
469,59	3379,12
469,70	2562,19
469,81	3215,06
469,92	2271,80
470,03	3904,98
470,14	2553,38
470,25	4103,85
470,36	3334,15
470,47	2385,70
470,58	2429,77
470,69	3968,71
470,80	3989,27
470,91	2651,68
471,02	2860,26
471,13	3419,80
471,24	3448,27
471,35	2902,30
471,46	4781,57
471,56	4099,55
471,67	4307,23
471,78	4637,62
471,89	2306,83
472,00	2749,08
472,11	3760,35
472,22	4190,85
472,33	3073,59
472,44	3368,27
472,55	2829,08
472,66	3175,51
472,77	3007,83
472,88	5612,51
472,99	4251,87
473,10	2367,85
473,21	2956,31
473,32	2973,48
473,42	2497,34
473,53	2645,13
473,64	3480,13
473,75	3565,10
473,86	3333,47
473,97	3615,72
474,08	3564,65
474,19	4178,20
474,30	5592,40
474,41	3701,15
474,52	2885,80
474,62	3361,27
474,73	2752,70
474,84	5298,17
474,95	3823,18
475,06	3891,88
475,17	2630,89
475,28	2264,35
475,39	3272,23
475,50	2614,85
475,60	2447,62
475,71	2587,50
475,82	4179,33
475,93	2642,64
476,04	4523,27
476,15	3110,88
476,26	3597,19
476,37	2866,14
476,47	2867,27
476,58	2808,74
476,69	2297,11
476,80	2326,49
476,91	3038,79
477,02	3331,44
477,13	3239,91
477,23	2704,56
477,34	3379,80
477,45	3539,12
477,56	2937,32
477,67	2915,63
477,78	3309,97
477,89	3203,98
477,99	2845,35
478,10	3923,29
478,21	3620,92
478,32	3274,72
478,43	2959,02
478,54	5259,30
478,64	3635,61
478,75	3198,11
478,86	2771,90
478,97	3159,92
479,08	3028,85
479,18	2783,88
479,29	2863,88
479,40	2522,19
479,51	2189,09
479,62	2706,82
479,72	2794,05
479,83	2366,27
479,94	3512,68
480,05	3504,31
480,16	2607,16
480,26	3490,98
480,37	2542,31
480,48	3908,60
480,59	3190,42
480,70	3225,45
480,80	3041,05
480,91	2628,41
481,02	2373,04
481,13	3412,79
481,24	3244,43
481,34	2488,52
481,45	5366,19
481,56	2868,85
481,67	2927,83
481,77	2856,20
481,88	2767,38
481,99	3470,87
482,10	3476,97
482,20	8368,14
482,31	2946,59
482,42	3609,17
482,53	2751,11
482,63	4594,00
482,74	3923,06
482,85	2610,55
482,96	2681,29
483,06	2368,07
483,17	3644,42
483,28	2547,05
483,39	3106,58
483,49	3813,23
483,60	5767,98
483,71	2707,27
483,81	4072,89
483,92	3079,24
484,03	3063,42
484,14	2806,03
484,24	2542,98
484,35	3084,89
484,46	3201,72
484,57	2749,53
484,67	3549,06
484,78	2809,19
484,89	5528,89
484,99	2813,94
485,10	3136,87
485,21	3566,46
485,31	3508,61
485,42	3387,03
485,53	2802,86
485,63	3091,44
485,74	4856,14
485,85	6279,61
485,96	17190,06
486,06	3299,35
486,17	3152,91
486,28	3459,12
486,38	2357,68
486,49	3944,08
486,60	2486,49
486,70	2581,85
486,81	2851,22
486,92	2653,94
487,02	2682,87
487,13	2167,40
487,24	2816,65
487,34	2585,24
487,45	4889,14
487,56	3073,82
487,66	2524,23
487,77	3357,88
487,87	2804,45
487,98	2191,13
488,09	2927,15
488,19	2200,62
488,30	5708,32
488,41	2806,25
488,51	2305,48
488,62	2614,62
488,73	2626,15
488,83	3210,99
488,94	3659,11
489,04	4818,18
489,15	2679,70
489,26	2484,91
489,36	3368,05
489,47	2824,33
489,58	2488,30
489,68	3541,38
489,79	2590,89
489,89	3167,60
490,00	2831,56
490,11	3417,31
490,21	3439,68
490,32	2487,84
490,42	3083,31
490,53	3196,75
490,64	2423,67
490,74	2484,00
490,85	2385,70
490,95	3798,32
491,06	3498,21
491,16	2650,78
491,27	3522,39
491,38	2782,30
491,48	5498,84
491,59	4834,00
491,69	3480,59
491,80	2279,26
491,90	4514,01
492,01	2415,98
492,12	3692,33
492,22	2823,20
492,33	4127,35
492,43	3148,84
492,54	2407,85
492,64	2518,80
492,75	3192,68
492,86	3300,70
492,96	2953,37
493,07	2634,51
493,17	3331,21
493,28	3719,22
493,38	3371,66
493,49	2691,00
493,59	3561,71
493,70	3244,43
493,80	2595,86
493,91	2427,96
494,01	2601,06
494,12	2714,28
494,22	4098,20
494,33	4735,02
494,43	4515,81
494,54	5015,24
494,64	3565,10
494,75	2628,18
494,86	4242,83
494,96	2600,61
495,07	2944,33
495,17	4450,50
495,28	2886,25
495,38	2567,39
495,49	3053,25
495,59	3492,34
495,69	3072,69
495,80	4503,38
495,90	2940,26
496,01	2407,39
496,11	3397,42
496,22	2894,61
496,32	2453,72
496,43	3878,09
496,53	2834,28
496,64	2912,92
496,74	3395,39
496,85	3684,65
496,95	3227,71
497,06	2701,40
497,16	3513,81
497,27	3014,38
497,37	4273,56
497,48	2437,22
497,58	2460,95
497,68	2775,75
497,79	4048,93
497,89	2768,51
498,00	3109,30
498,10	2349,77
498,21	4082,15
498,31	2765,80
498,42	2637,44
498,52	4109,27
498,62	3081,27
498,73	3132,80
498,83	3542,05
498,94	2700,49
499,04	4202,15
499,15	2878,12
499,25	2493,72
499,35	3765,32
499,46	4833,77
499,56	5490,25
499,67	3686,23
499,77	2265,93
499,87	2507,50
499,98	2625,47
500,08	2099,38
500,19	2711,12
500,29	3104,78
500,39	3486,01
500,50	3998,76
500,60	3080,37
500,71	3162,63
500,81	3220,93
500,91	2384,34
501,02	2780,72
501,12	3597,19
501,22	2404,00
501,33	3250,08
501,43	3797,64
501,54	2354,97
501,64	2653,26
501,74	2750,89
501,85	4430,84
501,95	2548,18
502,05	2565,58
502,16	2822,52
502,26	4675,58
502,37	3701,82
502,47	3334,38
502,57	2895,74
502,68	2648,07
502,78	2460,95
502,88	4048,48
502,99	2949,53
503,09	3967,35
503,19	2470,22
503,30	2257,79
503,40	2548,41
503,50	2703,66
503,61	3030,20
503,71	2830,43
503,81	2889,64
503,92	3230,65
504,02	4052,55
504,12	6711,01
504,23	4337,29
504,33	2958,11
504,43	2904,56
504,54	3867,47
504,64	3799,67
504,74	6730,67
504,84	3198,33
504,95	2767,38
505,05	2095,31
505,15	4385,42
505,26	2399,94
505,36	2696,65
505,46	2658,69
505,56	3495,73
505,67	3546,57
505,77	3477,87
505,87	2512,25
505,98	2216,44
506,08	2709,76
506,18	2989,75
506,28	3211,67
506,39	3024,33
506,49	2771,45
506,59	2775,52
506,70	2368,30
506,80	3224,10
506,90	5103,82
507,00	2236,33
507,11	3158,11
507,21	3968,03
507,31	3632,90
507,41	3090,54
507,52	2762,64
507,62	2958,34
507,72	4193,11
507,82	4107,01
507,93	2784,11
508,03	3973,45
508,13	3330,53
508,23	2980,49
508,34	3367,14
508,44	2495,53
508,54	2531,68
508,64	3101,16
508,74	2231,35
508,85	2683,55
508,95	2973,93
509,05	2344,12
509,15	2846,48
509,26	3412,57
509,36	2541,63
509,46	3199,92
509,56	2404,23
509,66	3071,33
509,77	2560,61
509,87	2843,54
509,97	3082,18
510,07	3241,04
510,17	2273,39
510,28	5904,70
510,38	4103,17
510,48	2873,82
510,58	3624,99
510,68	3318,33
510,78	3326,24
510,89	2872,24
510,99	2380,50
511,09	4029,72
511,19	3805,55
511,29	2513,38
511,39	4095,71
511,50	4334,58
511,60	2451,46
511,70	3790,63
511,80	3963,06
511,90	3936,17
512,00	2983,20
512,11	2542,53
512,21	3200,14
512,31	2332,14
512,41	4664,74
512,51	3243,08
512,61	5513,98
512,71	2672,92
512,82	2684,00
512,92	2106,16
513,02	3475,16
513,12	2838,80
513,22	2647,84
513,32	3838,09
513,42	3269,29
513,53	4045,77
513,63	3516,74
513,73	3764,42
513,83	2358,58
513,93	3472,90
514,03	3600,36
514,13	4621,80
514,23	2534,17
514,33	2798,57
514,44	2820,04
514,54	2684,00
514,64	5020,21
514,74	2845,35
514,84	2791,34
514,94	3770,75
515,04	3691,20
515,14	3222,51
515,24	3444,20
515,34	3236,30
515,44	2116,10
515,55	2100,51
515,65	3549,96
515,75	2625,92
515,85	2832,47
515,95	3607,81
516,05	4397,17
516,15	3380,25
516,25	2391,58
516,35	2542,53
516,45	2634,96
516,55	2574,40
516,65	2939,36
516,75	5252,74
516,85	3566,91
516,95	3890,29
517,05	4171,19
517,16	2408,98
517,26	5941,76
517,36	2684,45
517,46	2273,61
517,56	3285,34
517,66	2954,50
517,76	2659,14
517,86	2656,43
517,96	3497,31
518,06	2539,59
518,16	2638,80
518,26	3514,71
518,36	2625,24
518,46	2996,08
518,56	4101,59
518,66	4547,23
518,76	3888,94
518,86	4918,06
518,96	3697,98
519,06	3983,62
519,16	4937,95
519,26	4594,68
519,36	4822,92
519,46	4310,40
519,56	5339,29
519,66	6026,73
519,76	3120,60
519,86	3029,52
519,96	3481,49
520,06	3100,03
520,16	5062,92
520,26	3821,37
520,36	2773,94
520,46	2760,61
520,56	2689,65
520,66	2854,61
520,76	2634,73
520,86	2890,09
520,96	4314,69
521,06	3563,97
521,16	2465,47
521,26	2939,81
521,35	3628,83
521,45	2429,99
521,55	2841,28
521,65	3614,82
521,75	2814,62
521,85	2288,53
521,95	3205,34
522,05	2502,76
522,15	2743,20
522,25	11418,46
522,35	4529,60
522,45	3610,75
522,55	4927,78
522,65	4605,53
522,75	4531,18
522,85	5308,34
522,94	6000,75
523,04	7157,78
523,14	6806,15
523,24	5873,52
523,34	5733,86
523,44	5881,65
523,54	4663,83
523,64	4010,06
523,74	5673,07
523,84	4345,42
523,94	3888,71
524,03	2615,52
524,13	3570,75
524,23	3503,86
524,33	2589,08
524,43	3011,22
524,53	3093,25
524,63	2648,74
524,73	2712,70
524,83	2362,20
524,92	2871,56
525,02	2217,12
525,12	3735,72
525,22	3075,40
525,32	2429,77
525,42	4082,38
525,52	3084,21
525,61	3458,44
525,71	2204,69
525,81	3358,33
525,91	2432,25
526,01	3137,32
526,11	3220,48
526,21	3775,27
526,30	3373,70
526,40	2663,66
526,50	3364,66
526,60	3723,74
526,70	3684,87
526,80	3540,25
526,89	2811,45
526,99	2514,74
527,09	3199,46
527,19	3362,17
527,29	3749,51
527,39	2985,23
527,48	3443,30
527,58	3354,26
527,68	2366,27
527,78	4262,49
527,88	5312,18
527,97	3011,22
528,07	2476,55
528,17	4019,56
528,27	4217,97
528,37	2956,08
528,46	2543,21
528,56	4785,64
528,66	3685,55
528,76	2314,06
528,86	3943,40
528,95	2488,30
529,05	3166,02
529,15	3205,11
529,25	3770,75
529,35	3930,52
529,44	3662,28
529,54	4449,83
529,64	3554,48
529,74	2885,80
529,83	2422,54
529,93	2768,51
530,03	3400,59
530,13	3122,63
530,22	4300,90
530,32	4152,66
530,42	3809,39
530,52	2115,20
530,61	3874,25
530,71	2357,68
530,81	3849,84
530,91	2968,51
531,00	2860,72
531,10	2760,15
531,20	3404,20
531,30	2811,90
531,39	2960,15
531,49	2689,19
531,59	6201,19
531,69	4410,05
531,78	3377,76
531,88	4357,40
531,98	4658,86
532,07	3507,70
532,17	4293,90
532,27	4700,89
532,37	3485,11
532,46	3705,21
532,56	3351,78
532,66	2447,17
532,75	3010,54
532,85	3214,83
532,95	2997,21
533,04	2988,62
533,14	3345,67
533,24	3641,03
533,34	2732,36
533,43	3714,48
533,53	2171,47
533,63	3487,37
533,72	2879,25
533,82	2468,64
533,92	2423,44
534,01	5983,12
534,11	6662,88
534,21	3638,32
534,30	2774,16
534,40	2952,69
534,50	2231,13
534,59	2728,06
534,69	2502,76
534,79	3194,94
534,88	4482,37
534,98	4015,26
535,08	2062,32
535,17	3681,71
535,27	2834,50
535,36	2551,35
535,46	3472,00
535,56	2351,35
535,65	3500,92
535,75	3860,01
535,85	3260,93
535,94	2656,43
536,04	2983,65
536,14	3680,36
536,23	4525,98
536,33	2705,24
536,42	3239,46
536,52	2885,57
536,62	2240,17
536,71	3395,62
536,81	3140,71
536,90	3108,39
537,00	3262,06
537,10	2603,55
537,19	3142,29
537,29	3576,63
537,38	4129,38
537,48	3100,48
537,58	3098,45
537,67	2568,75
537,77	2923,09
537,86	2773,49
537,96	4348,36
538,06	2958,79
538,15	2534,17
538,25	5175,46
538,34	5771,83
538,44	5237,83
538,53	3664,54
538,63	4479,88
538,73	3907,47
538,82	3235,40
538,92	3061,84
539,01	5387,88
539,11	2580,95
539,20	5798,04
539,30	3787,47
539,39	2982,75
539,49	3897,75
539,59	4085,09
539,68	6268,08
539,78	6294,52
539,87	4435,59
539,97	4846,65
540,06	5181,78
540,16	4341,13
540,25	6064,02
540,35	8188,49
540,44	8286,56
540,54	11071,35
540,63	10905,70
540,73	11831,10
540,82	13685,06
540,92	13007,34
541,01	14476,23
541,11	13951,95
541,20	11478,12
541,30	9879,74
541,39	8719,54
541,49	6854,96
541,58	7375,85
541,68	6369,78
541,77	4731,63
541,87	3393,81
541,96	3127,60
542,06	4639,20
542,15	4059,55
542,25	5357,15
542,34	4366,89
542,44	3014,16
542,53	3411,66
542,63	3820,01
542,72	3027,27
542,82	2996,98
542,91	3454,15
543,01	2831,11
543,10	4100,23
543,20	3329,86
543,29	3663,63
543,38	2773,71
543,48	3218,67
543,57	3013,93
543,67	3025,46
543,76	3242,40
543,86	3226,36
543,95	4029,05
544,05	5687,99
544,14	6663,78
544,23	4321,69
544,33	4205,31
544,42	5717,82
544,52	5452,06
544,61	6724,79
544,71	9348,91
544,80	11060,27
544,89	11724,66
544,99	11740,48
545,08	13562,36
545,18	11560,15
545,27	15239,83
545,36	13332,08
545,46	11225,92
545,55	9086,09
545,65	7971,09
545,74	6196,00
545,84	4717,84
545,93	4996,93
546,02	4251,87
546,12	5069,92
546,21	4431,97
546,30	3958,99
546,40	3984,30
546,49	3023,65
546,59	3832,22
546,68	3099,13
546,77	4441,92
546,87	3738,66
546,96	4439,66
547,05	3863,40
547,15	2906,82
547,24	3416,41
547,34	2921,73
547,43	3484,88
547,52	4484,40
547,62	3820,46
547,71	4109,95
547,80	4009,39
547,90	3341,61
547,99	5280,54
548,08	3798,77
548,18	2341,86
548,27	2708,18
548,36	2682,19
548,46	2901,39
548,55	2842,64
548,64	3564,88
548,74	2760,61
548,83	3491,89
548,92	5314,21
549,02	2749,08
549,11	6235,32
549,20	4070,40
549,30	3060,03
549,39	3478,33
549,48	3726,68
549,58	2606,26
549,67	3851,88
549,76	3501,38
549,85	2559,48
549,95	3230,65
550,04	4130,06
550,13	2536,66
550,23	4025,88
550,32	2822,98
550,41	2686,03
550,50	3691,43
550,60	5107,66
550,69	3319,91
550,78	2460,27
550,88	4251,41
550,97	4024,75
551,06	3301,16
551,15	3382,51
551,25	5030,60
551,34	2677,44
551,43	3176,41
551,52	3755,61
551,62	4394,46
551,71	4624,06
551,80	4364,41
551,89	3669,28
551,99	3277,43
552,08	3380,70
552,17	3000,60
552,26	3888,71
552,36	2513,15
552,45	2679,25
552,54	2599,93
552,63	4017,97
552,73	5674,88
552,82	5571,83
552,91	3832,67
553,00	6866,49
553,10	3901,82
553,19	5927,98
553,28	3676,74
553,37	4434,69
553,46	3540,92
553,56	5360,76
553,65	4096,16
553,74	4215,71
553,83	5730,47
553,92	5594,66
554,02	6387,40
554,11	6170,23
554,20	5755,55
554,29	8760,90
554,38	6497,23
554,48	6799,14
554,57	6401,19
554,66	6575,19
554,75	7508,73
554,84	7575,62
554,94	7226,48
555,03	6396,67
555,12	5996,00
555,21	6075,77
555,30	9049,93
555,39	5836,23
555,49	5781,77
555,58	6316,67
555,67	6301,98
555,76	6443,45
555,85	4218,42
555,94	3885,77
556,03	4191,30
556,13	4258,65
556,22	3945,21
556,31	4082,83
556,40	2930,77
556,49	4823,83
556,58	3669,06
556,67	3625,89
556,77	3290,76
556,86	5224,27
556,95	4351,75
557,04	5417,48
557,13	5624,71
557,22	4871,96
557,31	3868,60
557,40	3412,57
557,50	5155,34
557,59	2918,79
557,68	2938,68
557,77	4750,61
557,86	3732,11
557,95	3603,07
558,04	3428,16
558,13	3344,32
558,22	3786,79
558,31	3259,58
558,41	2659,14
558,50	4208,48
558,59	4356,72
558,68	4703,83
558,77	4413,90
558,86	2606,03
558,95	2524,68
559,04	3737,53
559,13	4781,57
559,22	2954,95
559,31	3243,76
559,40	2848,51
559,49	3059,81
559,59	4338,87
559,68	2546,60
559,77	5117,61
559,86	5680,98
559,95	3620,24
560,04	3358,10
560,13	3926,22
560,22	6045,94
560,31	3855,49
560,40	3806,23
560,49	2557,90
560,58	3112,69
560,67	2720,15
560,76	2739,36
560,85	2388,41
560,94	4795,35
561,03	2944,33
561,12	7356,64
561,21	6329,10
561,30	3475,39
561,39	3381,15
561,48	3544,99
561,57	2580,72
561,66	4116,95
561,75	5612,73
561,84	3196,07
561,93	3215,28
562,02	3369,63
562,11	2707,27
562,20	2878,57
562,29	3553,80
562,38	2362,42
562,47	4441,24
562,56	3721,48
562,65	3073,82
562,74	3345,90
562,83	7141,28
562,92	4013,23
563,01	5218,62
563,10	2712,70
563,19	3177,77
563,28	7746,24
563,37	4763,26
563,46	2693,04
563,55	3182,52
563,64	7031,68
563,73	2748,40
563,82	3950,40
563,91	5547,65
564,00	3528,04
564,09	2745,92
564,18	3622,50
564,27	2563,77
564,35	3921,48
564,44	3494,15
564,53	4401,69
564,62	4261,58
564,71	3817,53
564,80	3908,82
564,89	4098,88
564,98	9770,82
565,07	4084,64
565,16	2799,93
565,25	9905,50
565,34	3234,27
565,43	3267,03
565,51	2900,94
565,60	5328,67
565,69	3076,08
565,78	5474,43
565,87	2387,06
565,96	2191,35
566,05	4127,35
566,14	5039,64
566,23	3985,21
566,32	5347,43
566,40	4539,54
566,49	5342,68
566,58	3018,90
566,67	3473,58
566,76	2852,13
566,85	3087,60
566,94	3673,80
567,03	4216,16
567,11	3309,74
567,20	3343,64
567,29	5048,45
567,38	4194,24
567,47	2603,77
567,56	3573,69
567,65	3673,58
567,73	2706,82
567,82	2673,38
567,91	3944,53
568,00	3465,22
568,09	4589,03
568,18	2925,12
568,27	3395,39
568,35	3680,81
568,44	4357,17
568,53	3931,20
568,62	2807,16
568,71	2699,36
568,80	3076,08
568,88	4438,98
568,97	5193,08
569,06	2667,73
569,15	3063,87
569,24	4013,23
569,32	4228,36
569,41	3574,60
569,50	2625,24
569,59	2471,80
569,68	2670,66
569,76	3486,46
569,85	4115,60
569,94	4467,23
570,03	2854,84
570,12	4154,02
570,20	3546,57
570,29	4064,53
570,38	3943,17
570,47	3879,67
570,56	2546,83
570,64	3152,23
570,73	3303,87
570,82	5286,41
570,91	4476,72
570,99	2683,09
571,08	2534,40
571,17	2977,10
571,26	4781,34
571,34	2976,19
571,43	3785,21
571,52	4053,45
571,61	2735,30
571,69	2614,85
571,78	4324,63
571,87	4732,53
571,96	4553,55
572,04	4404,18
572,13	4414,57
572,22	2856,65
572,31	2576,43
572,39	2794,50
572,48	3661,82
572,57	3128,73
572,66	2858,00
572,74	2402,65
572,83	3896,85
572,92	3142,74
573,00	2625,69
573,09	4084,64
573,18	4483,05
573,27	4232,21
573,35	2873,60
573,44	2561,29
573,53	3349,52
573,61	3384,32
573,70	3825,89
573,79	2810,77
573,87	5758,49
573,96	2963,99
574,05	3308,39
574,14	3327,14
574,22	2899,13
574,31	4330,28
574,40	2544,11
574,48	3435,39
574,57	3599,68
574,66	3230,20
574,74	3311,78
574,83	4702,48
574,92	4769,14
575,00	3223,19
575,09	4612,99
575,18	3041,05
575,26	5293,87
575,35	3057,09
575,43	3138,67
575,52	4243,05
575,61	3977,97
575,69	4446,44
575,78	2986,81
575,87	6000,75
575,95	4031,98
576,04	2924,67
576,13	3797,64
576,21	3098,45
576,30	3843,97
576,38	3735,27
576,47	3144,32
576,56	3082,86
576,64	3381,61
576,73	4452,76
576,82	4163,51
576,90	3634,93
576,99	3679,68
577,07	3184,55
577,16	3389,29
577,25	4107,01
577,33	6257,01
577,42	3785,21
577,50	3042,63
577,59	4103,17
577,68	4963,94
577,76	3630,41
577,85	3506,80
577,93	3916,73
578,02	3998,76
578,10	3870,63
578,19	3900,91
578,28	3451,43
578,36	3702,50
578,45	3919,22
578,53	3072,69
578,62	3340,48
578,70	3194,04
578,79	3881,71
578,88	3918,32
578,96	3161,72
579,05	3199,69
579,13	6143,57
579,22	4388,81
579,30	3590,19
579,39	4389,72
579,47	5778,15
579,56	3442,40
579,64	9375,57
579,73	3732,11
579,82	4310,85
579,90	3139,58
579,99	3267,26
580,07	4222,49
580,16	3858,66
580,24	4659,09
580,33	2624,11
580,41	3852,78
580,50	2874,95
580,58	3629,28
580,67	3396,07
580,75	3627,48
580,84	3563,07
580,92	2844,67
581,01	5589,23
581,09	2985,91
581,18	3394,04
581,26	3011,45
581,35	2638,35
581,43	4459,77
581,52	3460,02
581,60	3931,42
581,69	3439,46
581,77	3776,62
581,86	3868,37
581,94	3297,99
582,02	4570,73
582,11	2702,53
582,19	5043,71
582,28	6101,08
582,36	5724,82
582,45	5827,19
582,53	2968,06
582,62	3057,77
582,70	2887,16
582,79	3970,29
582,87	2808,74
582,96	3868,37
583,04	5170,49
583,12	3829,28
583,21	3679,23
583,29	3977,97
583,38	3945,88
583,46	3366,24
583,55	3713,80
583,63	2716,54
583,71	4033,57
583,80	3634,48
583,88	2695,75
583,97	6609,77
584,05	4086,22
584,13	4432,88
584,22	4236,27
584,30	3188,39
584,39	4288,25
584,47	4649,82
584,55	2999,02
584,64	3712,44
584,72	3887,81
584,81	2704,11
584,89	2902,75
584,97	2868,85
585,06	2805,12
585,14	3530,75
585,23	3811,43
585,31	2597,22
585,39	3257,54
585,48	3768,94
585,56	2654,17
585,64	4007,13
585,73	3552,45
585,81	3474,71
585,90	4281,70
585,98	3217,77
586,06	3344,77
586,15	5113,99
586,23	2628,86
586,31	2998,57
586,40	2745,24
586,48	4839,65
586,56	2936,19
586,65	2610,55
586,73	2864,11
586,81	4073,79
586,90	3280,82
586,98	2523,55
587,06	2570,10
587,15	3254,15
587,23	3217,99
587,31	3405,33
587,40	2960,37
587,48	2721,28
587,56	4740,21
587,65	6665,59
587,73	4285,54
587,81	3834,93
587,90	5692,51
587,98	3595,16
588,06	2916,31
588,14	2826,59
588,23	3119,69
588,31	5089,13
588,39	4232,43
588,48	3334,15
588,56	2934,61
588,64	3939,78
588,72	3724,20
588,81	3168,28
588,89	3350,87
588,97	3546,35
589,06	4868,12
589,14	4789,93
589,22	3819,11
589,30	3306,81
589,39	2986,59
589,47	4286,21
589,55	5493,64
589,63	3786,12
589,72	3170,99
589,80	3062,29
589,88	3981,82
589,96	4512,42
590,05	3623,18
590,13	3740,47
590,21	4633,55
590,29	5088,91
590,38	4281,70
590,46	4843,71
590,54	2697,56
590,62	3017,55
590,71	4575,47
590,79	4930,72
590,87	2612,59
590,95	2808,51
591,03	3302,96
591,12	3791,99
591,20	3175,51
591,28	5522,11
591,36	3973,23
591,44	3317,88
591,53	3521,49
591,61	3448,95
591,69	2941,84
591,77	3668,60
591,85	3691,20
591,94	2911,11
592,02	3140,03
592,10	4347,23
592,18	4383,84
592,26	3463,41
592,34	2802,41
592,43	2511,57
592,51	2648,74
592,59	2981,16
592,67	2837,44
592,75	2987,04
592,84	3327,37
592,92	4497,06
593,00	3125,79
593,08	3189,07
593,16	2774,62
593,24	3041,05
593,32	4223,62
593,41	3617,31
593,49	2633,83
593,57	3004,44
593,65	2938,00
593,73	3825,21
593,81	3965,32
593,89	4525,76
593,98	3307,48
594,06	2802,41
594,14	2835,18
594,22	3014,38
594,30	3024,10
594,38	3276,75
594,46	4565,08
594,54	4408,47
594,62	4213,45
594,71	3309,52
594,79	2948,17
594,87	3376,86
594,95	3386,58
595,03	4535,02
595,11	3479,23
595,19	5297,04
595,27	3333,70
595,35	2984,10
595,43	2896,42
595,52	3083,53
595,60	3207,60
595,68	5725,95
595,76	2782,75
595,84	4074,47
595,92	2798,80
596,00	4909,70
596,08	4510,16
596,16	3619,34
596,24	3401,49
596,32	3155,17
596,40	3976,39
596,48	3967,58
596,56	3937,30
596,64	2757,67
596,73	4963,94
596,81	3023,20
596,89	3795,15
596,97	2528,75
597,05	7263,99
597,13	3282,63
597,21	2586,82
597,29	3189,52
597,37	4712,19
597,45	3962,16
597,53	2921,73
597,61	3645,78
597,69	4115,37
597,77	3284,43
597,85	3020,49
597,93	3497,76
598,01	3226,81
598,09	4253,90
598,17	3408,27
598,25	3587,70
598,33	2601,51
598,41	3176,64
598,49	2566,94
598,57	2829,08
598,65	3237,20
598,73	3453,24
598,81	3691,65
598,89	3295,73
598,97	2708,18
599,05	4806,20
599,13	3161,95
599,21	2808,29
599,29	3510,42
599,37	3187,26
599,45	2947,27
599,53	5122,35
599,61	2920,38
599,69	3814,81
599,77	3264,32
599,85	2869,53
599,93	3114,72
600,00	2682,87
600,08	3951,31
600,16	2447,62
600,24	2682,19
600,32	5121,00
600,40	5561,66
600,48	4812,53
600,56	4589,71
600,64	4499,32
600,72	3317,43
600,80	3464,99
600,88	3294,60
600,96	4626,32
601,04	2664,56
601,12	2874,95
601,19	2334,18
601,27	3039,92
601,35	3394,94
601,43	2850,09
601,51	3609,40
601,59	2908,40
601,67	2613,49
601,75	3014,16
601,83	3487,37
601,91	2488,30
601,98	2636,77
602,06	4468,36
602,14	3617,08
602,22	3851,88
602,30	4191,08
602,38	3574,82
602,46	2725,13
602,54	4566,89
602,61	3855,72
602,69	3680,58
602,77	2516,32
602,85	2717,67
602,93	2743,20
603,01	3430,42
603,09	4527,34
603,17	3074,50
603,24	3805,10
603,32	2575,98
603,40	3450,53
603,48	3958,09
603,56	2476,32
603,64	2599,03
603,71	2695,97
603,79	3301,61
603,87	4130,06
603,95	6177,92
604,03	3205,79
604,11	4430,62
604,18	3662,28
604,26	2886,48
604,34	2491,69
604,42	3601,04
604,50	2773,94
604,57	2784,11
604,65	3192,91
604,73	3299,12
604,81	3555,16
604,89	2713,83
604,96	3066,59
605,04	3844,64
605,12	3117,21
605,20	4109,95
605,28	4753,10
605,35	3476,74
605,43	3580,92
605,51	3083,76
605,59	4197,40
605,67	5638,04
605,74	3250,08
605,82	3451,89
605,90	2706,82
605,98	3945,43
606,05	3322,17
606,13	3942,04
606,21	3457,76
606,29	3163,76
606,36	3322,62
606,44	2893,26
606,52	3427,25
606,60	3156,08
606,67	2462,31
606,75	2916,31
606,83	2300,73
606,91	4212,77
606,98	2748,18
607,06	3332,57
607,14	3095,06
607,22	3088,96
607,29	2818,68
607,37	3394,49
607,45	3845,55
607,52	4042,83
607,60	4036,96
607,68	3248,28
607,76	3768,94
607,83	2345,48
607,91	3835,83
607,99	3703,41
608,06	3568,27
608,14	3013,93
608,22	3260,71
608,30	4709,71
608,37	2608,07
608,45	2249,43
608,53	3503,41
608,60	3566,23
608,68	2813,03
608,76	3077,66
608,83	4043,28
608,91	2656,88
608,99	4045,32
609,06	3590,87
609,14	3919,67
609,22	3172,80
609,29	2800,83
609,37	2465,92
609,45	4311,98
609,52	2721,96
609,60	2704,56
609,68	2803,09
609,75	3295,73
609,83	2317,23
609,91	5516,01
609,98	3030,20
610,06	2899,81
610,13	3833,57
610,21	3461,15
610,29	3377,76
610,36	2400,84
610,44	2865,91
610,52	3233,36
610,59	2640,83
610,67	2555,87
610,74	3272,23
610,82	2747,05
610,90	3625,89
610,97	2961,96
611,05	3786,12
611,13	3458,89
611,20	4978,40
611,28	2765,13
611,35	3205,57
611,43	2359,71
611,51	3647,36
611,58	3436,29
611,66	4741,57
611,73	2708,86
611,81	4661,80
611,88	3604,20
611,96	4048,03
612,04	2678,57
612,11	2592,47
612,19	5060,66
612,26	3043,08
612,34	3304,09
612,41	3114,72
612,49	2272,48
612,57	2352,71
612,64	2582,30
612,72	4631,29
612,79	5638,72
612,87	2363,55
612,94	2265,93
613,02	3317,20
613,09	3087,83
613,17	3748,60
613,24	2925,80
613,32	4117,18
613,40	2895,29
613,47	3090,54
613,55	2514,96
613,62	4250,96
613,70	4474,46
613,77	2771,00
613,85	4196,73
613,92	3061,61
614,00	2504,34
614,07	2921,05
614,15	2280,39
614,22	2497,11
614,30	3543,64
614,37	2458,24
614,45	2885,12
614,52	2626,37
614,60	2950,43
614,67	3980,91
614,75	2303,89
614,82	3716,51
614,90	2811,45
614,97	2501,86
615,05	4876,48
615,12	4056,62
615,20	3247,82
615,27	3249,63
615,34	3160,59
615,42	2556,54
615,49	3124,66
615,57	2427,73
615,64	2614,17
615,72	2748,18
615,79	2746,82
615,87	3574,60
615,94	4447,11
616,02	3392,68
616,09	4394,46
616,16	3568,49
616,24	3245,56
616,31	2499,14
616,39	4520,56
616,46	4250,96
616,54	3393,58
616,61	5082,13
616,68	2558,35
616,76	3076,53
616,83	3628,38
616,91	2780,94
616,98	2647,16
617,06	4215,48
617,13	2688,06
617,20	2820,26
617,28	3176,19
617,35	2521,29
617,43	4403,05
617,50	2843,77
617,57	3078,79
>>>>>End Processed Spectral Data<<<<<
