SpectraSuite Datei
++++++++++++++++++++++++++++++++++++
Datum: Mon Jan 05 02:06:42 CET 2004
Benutzer: Student
Dark-Spektrum vorhanden: Ja
Referenz-Spektrum vorhanden: Nein
Zahl der probierten Teilspektren: 1
Spektrometer: USB2+H04734
Integrationszeit (usec): 400000 (USB2+H04734)
Spektren Durchschnitt berechnet: 1 (USB2+H04734)
Boxcar Glättung: 0 (USB2+H04734)
Dunkelstromkorrektur: Nein (USB2+H04734)
Puls/Lampe aktiviert: Nein (USB2+H04734)
Correct for Detector Non-linearity: Nein (USB2+H04734)
Streulichtkorrektur: Nein (USB2+H04734)
Anzahl Pixel in verarbeitetem Spektrum: 2048
>>>>>Begin Processed Spectral Data<<<<<
418,45	978,51
418,57	978,51
418,69	978,51
418,80	944,61
418,92	928,79
419,04	962,69
419,16	953,65
419,28	897,15
419,40	851,96
419,52	879,07
419,64	883,59
419,75	917,49
419,87	928,79
419,99	836,14
420,11	892,63
420,23	903,93
420,35	894,89
420,47	958,17
420,58	973,99
420,70	958,17
420,82	924,27
420,94	987,54
421,06	1089,24
421,18	992,06
421,29	964,95
421,41	1068,90
421,53	1098,28
421,65	1114,10
421,77	1152,51
421,89	1089,24
422,00	1238,39
422,12	1138,95
422,24	1111,84
422,36	1075,68
422,48	1166,07
422,59	1125,39
422,71	1145,73
422,83	1127,65
422,95	1154,77
423,07	1084,72
423,18	1152,51
423,30	1161,55
423,42	1147,99
423,54	1123,13
423,66	1161,55
423,77	1206,75
423,89	1138,95
424,01	1123,13
424,13	1125,39
424,25	1141,21
424,36	1096,02
424,48	1096,02
424,60	1084,72
424,72	1150,25
424,84	1073,42
424,95	1181,89
425,07	1120,87
425,19	1170,59
425,31	1181,89
425,42	1114,10
425,54	1141,21
425,66	1107,32
425,78	1145,73
425,89	1143,47
426,01	1138,95
426,13	1154,77
426,25	1109,58
426,36	1098,28
426,48	1166,07
426,60	1184,15
426,72	1098,28
426,83	1093,76
426,95	1159,29
427,07	1143,47
427,19	1193,19
427,30	1159,29
427,42	1168,33
427,54	1071,16
427,66	1123,13
427,77	1059,86
427,89	1127,65
428,01	1100,54
428,12	1157,03
428,24	1082,46
428,36	1089,24
428,48	1037,26
428,59	1138,95
428,71	1109,58
428,83	1175,11
428,94	1147,99
429,06	1188,67
429,18	1059,86
429,30	1141,21
429,41	1170,59
429,53	1172,85
429,65	1163,81
429,76	1105,06
429,88	1159,29
430,00	1157,03
430,11	1102,80
430,23	1172,85
430,35	1161,55
430,47	1143,47
430,58	1175,11
430,70	1220,31
430,82	1231,61
430,93	1326,52
431,05	1163,81
431,17	1168,33
431,28	1204,49
431,40	1172,85
431,52	1231,61
431,63	1204,49
431,75	1091,50
431,87	1120,87
431,98	1222,57
432,10	1202,23
432,22	1209,01
432,33	1263,24
432,45	1181,89
432,56	1251,94
432,68	1333,30
432,80	1276,80
432,91	1355,90
433,03	1428,21
433,15	1570,58
433,26	1620,30
433,38	1819,16
433,50	1846,28
433,61	2088,08
433,73	2151,36
433,84	2144,58
433,96	2212,37
434,08	2510,67
434,19	2899,36
434,31	3355,84
434,43	4178,42
434,54	5141,11
434,66	6422,43
434,77	8331,98
434,89	10919,49
435,01	14729,56
435,12	18973,51
435,24	24842,28
435,35	31271,49
435,47	35678,16
435,59	35558,39
435,70	32132,49
435,82	26830,93
435,93	19298,93
436,05	11342,07
436,17	5990,80
436,28	2962,63
436,40	1911,81
436,51	1593,18
436,63	1505,05
436,74	1502,79
436,86	1412,39
436,98	1509,56
437,09	1301,66
437,21	1392,05
437,32	1206,75
437,44	1260,98
437,55	1240,65
437,67	1423,69
437,79	1322,00
437,90	1204,49
438,02	1147,99
438,13	1816,90
438,25	1294,88
438,36	1186,41
438,48	1218,05
438,59	1254,20
438,71	1179,63
438,83	1190,93
438,94	1145,73
439,06	1220,31
439,17	1233,87
439,29	1147,99
439,40	1188,67
439,52	1193,19
439,63	1170,59
439,75	1143,47
439,86	1089,24
439,98	1127,65
440,09	1143,47
440,21	1204,49
440,32	1193,19
440,44	1145,73
440,55	1138,95
440,67	1161,55
440,78	1251,94
440,90	1123,13
441,01	1132,17
441,13	1150,25
441,24	1163,81
441,36	1175,11
441,47	1166,07
441,59	1222,57
441,70	1159,29
441,82	1186,41
441,93	1116,35
442,05	1141,21
442,16	1138,95
442,28	1111,84
442,39	1141,21
442,51	1186,41
442,62	1125,39
442,74	1161,55
442,85	1159,29
442,97	1172,85
443,08	1188,67
443,20	1093,76
443,31	1199,97
443,43	1118,61
443,54	1177,37
443,66	1159,29
443,77	1107,32
443,88	1120,87
444,00	1220,31
444,11	1143,47
444,23	1111,84
444,34	1213,53
444,46	1107,32
444,57	1236,13
444,69	1197,71
444,80	1163,81
444,91	1245,16
445,03	1109,58
445,14	1170,59
445,26	1086,98
445,37	1127,65
445,49	1089,24
445,60	1186,41
445,71	1116,35
445,83	1134,43
445,94	1057,60
446,06	1132,17
446,17	1096,02
446,29	1118,61
446,40	1141,21
446,51	1159,29
446,63	1114,10
446,74	1132,17
446,86	1129,91
446,97	1096,02
447,08	1199,97
447,20	1105,06
447,31	1116,35
447,43	1179,63
447,54	1123,13
447,65	1172,85
447,77	1114,10
447,88	1195,45
448,00	1109,58
448,11	1116,35
448,22	1170,59
448,34	1161,55
448,45	1114,10
448,56	1143,47
448,68	1172,85
448,79	1190,93
448,90	1184,15
449,02	1145,73
449,13	1109,58
449,25	1154,77
449,36	1116,35
449,47	1166,07
449,59	1265,50
449,70	1109,58
449,81	1111,84
449,93	1150,25
450,04	1136,69
450,15	1129,91
450,27	1123,13
450,38	1166,07
450,49	1064,38
450,61	1195,45
450,72	1147,99
450,83	1136,69
450,95	1129,91
451,06	1193,19
451,17	1170,59
451,29	1175,11
451,40	1068,90
451,51	1161,55
451,63	1150,25
451,74	1166,07
451,85	1206,75
451,97	1184,15
452,08	1136,69
452,19	1127,65
452,31	1157,03
452,42	1157,03
452,53	1161,55
452,65	1172,85
452,76	1107,32
452,87	1163,81
452,98	1166,07
453,10	1147,99
453,21	1152,51
453,32	1166,07
453,44	1143,47
453,55	1100,54
453,66	1274,54
453,77	1184,15
453,89	1181,89
454,00	1260,98
454,11	1206,75
454,23	1138,95
454,34	1075,68
454,45	1159,29
454,56	1218,05
454,68	1193,19
454,79	1123,13
454,90	1111,84
455,01	1157,03
455,13	1152,51
455,24	1193,19
455,35	1157,03
455,46	1093,76
455,58	1105,06
455,69	1184,15
455,80	1206,75
455,91	1132,17
456,03	1082,46
456,14	1159,29
456,25	1172,85
456,36	1134,43
456,48	1143,47
456,59	1141,21
456,70	1184,15
456,81	1159,29
456,92	1199,97
457,04	1138,95
457,15	1202,23
457,26	1057,60
457,37	1159,29
457,49	1184,15
457,60	1161,55
457,71	1125,39
457,82	1190,93
457,93	1129,91
458,05	1179,63
458,16	1116,35
458,27	1159,29
458,38	1120,87
458,49	1177,37
458,61	1161,55
458,72	1127,65
458,83	1238,39
458,94	1175,11
459,05	1202,23
459,17	1303,92
459,28	1145,73
459,39	1091,50
459,50	1157,03
459,61	1179,63
459,72	1157,03
459,84	1152,51
459,95	1114,10
460,06	1303,92
460,17	1141,21
460,28	1120,87
460,39	1089,24
460,51	1227,09
460,62	1145,73
460,73	1150,25
460,84	1190,93
460,95	1172,85
461,06	1215,79
461,18	1211,27
461,29	1141,21
461,40	1129,91
461,51	1202,23
461,62	1292,62
461,73	1161,55
461,84	1159,29
461,96	1233,87
462,07	1184,15
462,18	1084,72
462,29	1177,37
462,40	1206,75
462,51	1159,29
462,62	1236,13
462,73	1159,29
462,85	1227,09
462,96	1123,13
463,07	1159,29
463,18	1150,25
463,29	1179,63
463,40	1190,93
463,51	1170,59
463,62	1206,75
463,73	1157,03
463,85	1181,89
463,96	1138,95
464,07	1118,61
464,18	1136,69
464,29	1184,15
464,40	1193,19
464,51	1175,11
464,62	1163,81
464,73	1141,21
464,84	1111,84
464,95	1204,49
465,06	1147,99
465,18	1154,77
465,29	1184,15
465,40	1107,32
465,51	1209,01
465,62	1168,33
465,73	1157,03
465,84	1150,25
465,95	1147,99
466,06	1179,63
466,17	1157,03
466,28	1199,97
466,39	1161,55
466,50	1062,12
466,61	1172,85
466,72	1179,63
466,83	1091,50
466,95	1166,07
467,06	1172,85
467,17	1179,63
467,28	1181,89
467,39	1181,89
467,50	1157,03
467,61	1050,82
467,72	1136,69
467,83	1168,33
467,94	1190,93
468,05	1152,51
468,16	1127,65
468,27	1172,85
468,38	1193,19
468,49	1188,67
468,60	1141,21
468,71	1141,21
468,82	1190,93
468,93	1215,79
469,04	1193,19
469,15	1179,63
469,26	1218,05
469,37	1134,43
469,48	1204,49
469,59	1229,35
469,70	1096,02
469,81	1199,97
469,92	1114,10
470,03	1218,05
470,14	1175,11
470,25	1256,46
470,36	1188,67
470,47	1193,19
470,58	1120,87
470,69	1111,84
470,80	1190,93
470,91	1138,95
471,02	1166,07
471,13	1172,85
471,24	1188,67
471,35	1136,69
471,46	1186,41
471,56	1238,39
471,67	1215,79
471,78	1220,31
471,89	1215,79
472,00	1152,51
472,11	1179,63
472,22	1218,05
472,33	1206,75
472,44	1127,65
472,55	1152,51
472,66	1123,13
472,77	1147,99
472,88	1265,50
472,99	1218,05
473,10	1127,65
473,21	1132,17
473,32	1116,35
473,42	1181,89
473,53	1116,35
473,64	1193,19
473,75	1132,17
473,86	1206,75
473,97	1197,71
474,08	1260,98
474,19	1157,03
474,30	1294,88
474,41	1211,27
474,52	1197,71
474,62	1222,57
474,73	1211,27
474,84	1242,91
474,95	1188,67
475,06	1199,97
475,17	1159,29
475,28	1053,08
475,39	1247,42
475,50	1147,99
475,60	1224,83
475,71	1206,75
475,82	1195,45
475,93	1120,87
476,04	1238,39
476,15	1175,11
476,26	1181,89
476,37	1260,98
476,47	1120,87
476,58	1209,01
476,69	1102,80
476,80	1179,63
476,91	1166,07
477,02	1236,13
477,13	1197,71
477,23	1204,49
477,34	1238,39
477,45	1218,05
477,56	1184,15
477,67	1220,31
477,78	1195,45
477,89	1215,79
477,99	1154,77
478,10	1227,09
478,21	1231,61
478,32	1152,51
478,43	1154,77
478,54	1254,20
478,64	1211,27
478,75	1222,57
478,86	1247,42
478,97	1202,23
479,08	1270,02
479,18	1199,97
479,29	1270,02
479,40	1204,49
479,51	1193,19
479,62	1256,46
479,72	1227,09
479,83	1123,13
479,94	1190,93
480,05	1195,45
480,16	1190,93
480,26	1222,57
480,37	1134,43
480,48	1209,01
480,59	1166,07
480,70	1220,31
480,80	1218,05
480,91	1236,13
481,02	1179,63
481,13	1215,79
481,24	1199,97
481,34	1267,76
481,45	1276,80
481,56	1190,93
481,67	1186,41
481,77	1229,35
481,88	1145,73
481,99	1236,13
482,10	1242,91
482,20	1254,20
482,31	1213,53
482,42	1249,68
482,53	1227,09
482,63	1236,13
482,74	1285,84
482,85	1242,91
482,96	1229,35
483,06	1175,11
483,17	1285,84
483,28	1251,94
483,39	1222,57
483,49	1231,61
483,60	1344,60
483,71	1279,06
483,81	1251,94
483,92	1242,91
484,03	1227,09
484,14	1294,88
484,24	1283,58
484,35	1351,38
484,46	1220,31
484,57	1301,66
484,67	1290,36
484,78	1270,02
484,89	1364,94
484,99	1272,28
485,10	1380,75
485,21	1299,40
485,31	1337,82
485,42	1349,12
485,53	1249,68
485,63	1251,94
485,74	1367,20
485,85	1428,21
485,96	1599,96
486,06	1322,00
486,17	1317,48
486,28	1276,80
486,38	1265,50
486,49	1351,38
486,60	1342,34
486,70	1310,70
486,81	1283,58
486,92	1315,22
487,02	1319,74
487,13	1256,46
487,24	1315,22
487,34	1263,24
487,45	1396,57
487,56	1326,52
487,66	1279,06
487,77	1319,74
487,87	1337,82
487,98	1249,68
488,09	1233,87
488,19	1197,71
488,30	1380,75
488,41	1290,36
488,51	1322,00
488,62	1369,46
488,73	1364,94
488,83	1256,46
488,94	1297,14
489,04	1301,66
489,15	1335,56
489,26	1326,52
489,36	1240,65
489,47	1333,30
489,58	1258,72
489,68	1337,82
489,79	1301,66
489,89	1319,74
490,00	1322,00
490,11	1331,04
490,21	1340,08
490,32	1285,84
490,42	1285,84
490,53	1340,08
490,64	1416,91
490,74	1559,28
490,85	1701,65
490,95	1920,85
491,06	2219,15
491,16	2628,18
491,27	2747,95
491,38	2935,52
491,48	2944,56
491,59	2770,55
491,69	2515,19
491,80	2158,14
491,90	1801,08
492,01	1498,27
492,12	1358,16
492,22	1337,82
492,33	1360,42
492,43	1288,10
492,54	1297,14
492,64	1276,80
492,75	1281,32
492,86	1292,62
492,96	1326,52
493,07	1240,65
493,17	1288,10
493,28	1346,86
493,38	1292,62
493,49	1283,58
493,59	1297,14
493,70	1236,13
493,80	1236,13
493,91	1199,97
494,01	1263,24
494,12	1224,83
494,22	1258,72
494,33	1315,22
494,43	1337,82
494,54	1373,98
494,64	1337,82
494,75	1360,42
494,86	1430,47
494,96	1310,70
495,07	1407,87
495,17	1439,51
495,28	1346,86
495,38	1466,63
495,49	1532,16
495,59	1599,96
495,69	1710,69
495,80	1654,19
495,90	1685,83
496,01	1658,71
496,11	1575,10
496,22	1502,79
496,32	1543,46
496,43	1398,83
496,53	1376,24
496,64	1319,74
496,74	1333,30
496,85	1394,31
496,95	1389,79
497,06	1204,49
497,16	1209,01
497,27	1315,22
497,37	1294,88
497,48	1272,28
497,58	1315,22
497,68	1276,80
497,79	1355,90
497,89	1279,06
498,00	1297,14
498,10	1220,31
498,21	1236,13
498,31	1288,10
498,42	1272,28
498,52	1290,36
498,62	1238,39
498,73	1265,50
498,83	1322,00
498,94	1258,72
499,04	1349,12
499,15	1265,50
499,25	1285,84
499,35	1294,88
499,46	1283,58
499,56	1333,30
499,67	1315,22
499,77	1290,36
499,87	1251,94
499,98	1238,39
500,08	1292,62
500,19	1297,14
500,29	1294,88
500,39	1281,32
500,50	1254,20
500,60	1247,42
500,71	1279,06
500,81	1258,72
500,91	1229,35
501,02	1279,06
501,12	1249,68
501,22	1247,42
501,33	1312,96
501,43	1315,22
501,54	1199,97
501,64	1240,65
501,74	1272,28
501,85	1299,40
501,95	1254,20
502,05	1281,32
502,16	1315,22
502,26	1389,79
502,37	1349,12
502,47	1267,76
502,57	1303,92
502,68	1272,28
502,78	1317,48
502,88	1247,42
502,99	1218,05
503,09	1288,10
503,19	1283,58
503,30	1199,97
503,40	1209,01
503,50	1233,87
503,61	1245,16
503,71	1206,75
503,81	1267,76
503,92	1303,92
504,02	1364,94
504,12	1412,39
504,23	1349,12
504,33	1337,82
504,43	1326,52
504,54	1310,70
504,64	1274,54
504,74	1414,65
504,84	1267,76
504,95	1233,87
505,05	1166,07
505,15	1288,10
505,26	1222,57
505,36	1315,22
505,46	1303,92
505,56	1290,36
505,67	1319,74
505,77	1272,28
505,87	1240,65
505,98	1197,71
506,08	1204,49
506,18	1184,15
506,28	1242,91
506,39	1242,91
506,49	1222,57
506,59	1263,24
506,70	1206,75
506,80	1346,86
506,90	1358,16
507,00	1260,98
507,11	1270,02
507,21	1285,84
507,31	1256,46
507,41	1272,28
507,52	1202,23
507,62	1299,40
507,72	1242,91
507,82	1274,54
507,93	1222,57
508,03	1322,00
508,13	1215,79
508,23	1274,54
508,34	1224,83
508,44	1276,80
508,54	1294,88
508,64	1224,83
508,74	1242,91
508,85	1211,27
508,95	1211,27
509,05	1238,39
509,15	1242,91
509,26	1303,92
509,36	1224,83
509,46	1265,50
509,56	1288,10
509,66	1233,87
509,77	1310,70
509,87	1281,32
509,97	1292,62
510,07	1301,66
510,17	1256,46
510,28	1383,01
510,38	1312,96
510,48	1211,27
510,58	1324,26
510,68	1263,24
510,78	1342,34
510,89	1270,02
510,99	1274,54
511,09	1254,20
511,19	1220,31
511,29	1351,38
511,39	1358,16
511,50	1335,56
511,60	1260,98
511,70	1306,18
511,80	1380,75
511,90	1242,91
512,00	1254,20
512,11	1256,46
512,21	1333,30
512,31	1310,70
512,41	1267,76
512,51	1299,40
512,61	1353,64
512,71	1267,76
512,82	1290,36
512,92	1231,61
513,02	1279,06
513,12	1288,10
513,22	1229,35
513,32	1317,48
513,42	1272,28
513,53	1283,58
513,63	1297,14
513,73	1285,84
513,83	1285,84
513,93	1267,76
514,03	1303,92
514,13	1376,24
514,23	1267,76
514,33	1206,75
514,44	1324,26
514,54	1312,96
514,64	1358,16
514,74	1303,92
514,84	1281,32
514,94	1297,14
515,04	1371,72
515,14	1294,88
515,24	1276,80
515,34	1227,09
515,44	1157,03
515,55	1288,10
515,65	1312,96
515,75	1283,58
515,85	1224,83
515,95	1247,42
516,05	1267,76
516,15	1242,91
516,25	1265,50
516,35	1229,35
516,45	1240,65
516,55	1245,16
516,65	1222,57
516,75	1283,58
516,85	1270,02
516,95	1310,70
517,05	1292,62
517,16	1245,16
517,26	1373,98
517,36	1258,72
517,46	1249,68
517,56	1310,70
517,66	1285,84
517,76	1240,65
517,86	1220,31
517,96	1308,44
518,06	1222,57
518,16	1224,83
518,26	1247,42
518,36	1231,61
518,46	1279,06
518,56	1231,61
518,66	1281,32
518,76	1267,76
518,86	1218,05
518,96	1299,40
519,06	1220,31
519,16	1272,28
519,26	1202,23
519,36	1351,38
519,46	1249,68
519,56	1324,26
519,66	1283,58
519,76	1215,79
519,86	1251,94
519,96	1276,80
520,06	1279,06
520,16	1337,82
520,26	1292,62
520,36	1222,57
520,46	1299,40
520,56	1294,88
520,66	1279,06
520,76	1231,61
520,86	1258,72
520,96	1351,38
521,06	1351,38
521,16	1292,62
521,26	1267,76
521,35	1267,76
521,45	1220,31
521,55	1265,50
521,65	1351,38
521,75	1267,76
521,85	1224,83
521,95	1258,72
522,05	1249,68
522,15	1270,02
522,25	1324,26
522,35	1267,76
522,45	1247,42
522,55	1322,00
522,65	1258,72
522,75	1294,88
522,85	1270,02
522,94	1265,50
523,04	1267,76
523,14	1288,10
523,24	1213,53
523,34	1283,58
523,44	1349,12
523,54	1263,24
523,64	1254,20
523,74	1290,36
523,84	1364,94
523,94	1276,80
524,03	1256,46
524,13	1258,72
524,23	1297,14
524,33	1281,32
524,43	1299,40
524,53	1258,72
524,63	1283,58
524,73	1294,88
524,83	1308,44
524,92	1294,88
525,02	1254,20
525,12	1272,28
525,22	1242,91
525,32	1227,09
525,42	1288,10
525,52	1355,90
525,61	1276,80
525,71	1310,70
525,81	1265,50
525,91	1299,40
526,01	1238,39
526,11	1303,92
526,21	1265,50
526,30	1342,34
526,40	1256,46
526,50	1322,00
526,60	1319,74
526,70	1274,54
526,80	1328,78
526,89	1276,80
526,99	1240,65
527,09	1254,20
527,19	1240,65
527,29	1355,90
527,39	1333,30
527,48	1319,74
527,58	1242,91
527,68	1265,50
527,78	1301,66
527,88	1412,39
527,97	1272,28
528,07	1294,88
528,17	1331,04
528,27	1337,82
528,37	1355,90
528,46	1306,18
528,56	1351,38
528,66	1322,00
528,76	1274,54
528,86	1387,53
528,95	1364,94
529,05	1349,12
529,15	1333,30
529,25	1303,92
529,35	1344,60
529,44	1322,00
529,54	1358,16
529,64	1281,32
529,74	1310,70
529,83	1285,84
529,93	1312,96
530,03	1322,00
530,13	1344,60
530,22	1279,06
530,32	1360,42
530,42	1344,60
530,52	1310,70
530,61	1457,59
530,71	1328,78
530,81	1337,82
530,91	1279,06
531,00	1353,64
531,10	1360,42
531,20	1360,42
531,30	1337,82
531,39	1310,70
531,49	1387,53
531,59	1403,35
531,69	1444,03
531,78	1342,34
531,88	1328,78
531,98	1450,81
532,07	1380,75
532,17	1373,98
532,27	1412,39
532,37	1355,90
532,46	1308,44
532,56	1344,60
532,66	1310,70
532,75	1324,26
532,85	1324,26
532,95	1369,46
533,04	1358,16
533,14	1385,27
533,24	1349,12
533,34	1326,52
533,43	1383,01
533,53	1378,49
533,63	1423,69
533,72	1315,22
533,82	1394,31
533,92	1414,65
534,01	1457,59
534,11	1459,85
534,21	1457,59
534,30	1358,16
534,40	1310,70
534,50	1344,60
534,59	1349,12
534,69	1437,25
534,79	1412,39
534,88	1428,21
534,98	1516,34
535,08	1416,91
535,17	1511,82
535,27	1514,08
535,36	1518,60
535,46	1590,92
535,56	1557,02
535,65	1586,40
535,75	1622,56
535,85	1480,19
535,94	1516,34
536,04	1554,76
536,14	1624,82
536,23	1672,27
536,33	1645,15
536,42	1672,27
536,52	1611,26
536,62	1618,04
536,71	1640,63
536,81	1505,05
536,90	1577,36
537,00	1663,23
537,10	1559,28
537,19	1636,12
537,29	1575,10
537,38	1516,34
537,48	1489,23
537,58	1597,70
537,67	1581,88
537,77	1536,68
537,86	1620,30
537,96	1602,22
538,06	1541,20
538,15	1599,96
538,25	1541,20
538,34	1674,53
538,44	1566,06
538,53	1486,97
538,63	1480,19
538,73	1631,60
538,82	1642,89
538,92	1507,30
539,01	1638,38
539,11	1570,58
539,20	1636,12
539,30	1712,95
539,39	1609,00
539,49	1771,70
539,59	1728,77
539,68	1753,63
539,78	1807,86
539,87	1645,15
539,97	1839,50
540,06	1821,42
540,16	1839,50
540,25	1905,03
540,35	1936,67
540,44	1990,91
540,54	2060,96
540,63	1934,41
540,73	2060,96
540,82	2060,96
540,92	2140,06
541,01	2210,11
541,11	2225,93
541,20	2280,17
541,30	2280,17
541,39	2280,17
541,49	2305,02
541,58	2388,64
541,68	2408,98
541,77	2354,74
541,87	2300,50
541,96	2318,58
542,06	2318,58
542,15	2366,04
542,25	2393,16
542,34	2411,24
542,44	2316,32
542,53	2273,39
542,63	2293,72
542,72	2329,88
542,82	2320,84
542,91	2341,18
543,01	2390,90
543,10	2458,69
543,20	2481,29
543,29	2596,54
543,38	2542,31
543,48	2598,80
543,57	2698,23
543,67	2935,52
543,76	2910,66
543,86	2960,37
543,95	3010,09
544,05	3095,96
544,14	3330,99
544,23	3227,03
544,33	3344,54
544,42	3509,51
544,52	3633,80
544,61	3719,68
544,71	4051,87
544,80	4304,97
544,89	5007,78
544,99	6225,82
545,08	9647,20
545,18	16720,46
545,27	30302,03
545,36	53017,82
545,46	65535,00
545,55	65535,00
545,65	65535,00
545,74	65535,00
545,84	65535,00
545,93	65535,00
546,02	65535,00
546,12	65535,00
546,21	65535,00
546,30	65535,00
546,40	65365,51
546,49	30704,28
546,59	14799,61
546,68	9443,82
546,77	7000,95
546,87	5993,06
546,96	5249,58
547,05	4549,03
547,15	4243,96
547,24	3904,98
547,34	3733,24
547,43	3441,72
547,52	3229,29
547,62	3109,52
547,71	3025,91
547,80	2915,18
547,90	2804,45
547,99	2741,17
548,08	2607,84
548,18	2619,14
548,27	2662,08
548,36	2542,31
548,46	2497,11
548,55	2406,72
548,64	2402,20
548,74	2210,11
548,83	2264,35
548,92	2241,75
549,02	2214,63
549,11	2124,24
549,20	2092,60
549,30	2020,29
549,39	2031,58
549,48	1868,88
549,58	1853,06
549,67	1966,05
549,76	1848,54
549,85	1841,76
549,95	1941,19
550,04	1787,52
550,13	1778,48
550,23	1787,52
550,32	1701,65
550,41	1819,16
550,50	1821,42
550,60	1771,70
550,69	1674,53
550,78	1755,89
550,88	1792,04
550,97	1742,33
551,06	1649,67
551,15	1744,59
551,25	1706,17
551,34	1694,87
551,43	1746,85
551,52	1744,59
551,62	1690,35
551,71	1785,26
551,80	1776,22
551,89	1848,54
551,99	1783,00
552,08	1832,72
552,17	1769,44
552,26	1832,72
552,36	1783,00
552,45	1735,55
552,54	1721,99
552,63	1758,15
552,73	1785,26
552,82	1771,70
552,91	1798,82
553,00	1719,73
553,10	1721,99
553,19	1742,33
553,28	1676,79
553,37	1733,29
553,46	1647,41
553,56	1631,60
553,65	1615,78
553,74	1618,04
553,83	1629,34
553,92	1577,36
554,02	1618,04
554,11	1631,60
554,20	1554,76
554,29	1606,74
554,38	1527,64
554,48	1552,50
554,57	1561,54
554,66	1518,60
554,75	1618,04
554,84	1561,54
554,94	1491,49
555,03	1514,08
555,12	1441,77
555,21	1525,38
555,30	1441,77
555,39	1464,37
555,49	1502,79
555,58	1428,21
555,67	1462,11
555,76	1455,33
555,85	1450,81
555,94	1410,13
556,03	1383,01
556,13	1480,19
556,22	1364,94
556,31	1387,53
556,40	1392,05
556,49	1401,09
556,58	1376,24
556,67	1371,72
556,77	1342,34
556,86	1439,51
556,95	1444,03
557,04	1446,29
557,13	1378,49
557,22	1437,25
557,31	1473,41
557,40	1367,20
557,50	1437,25
557,59	1412,39
557,68	1421,43
557,77	1423,69
557,86	1453,07
557,95	1407,87
558,04	1416,91
558,13	1319,74
558,22	1385,27
558,31	1387,53
558,41	1410,13
558,50	1351,38
558,59	1410,13
558,68	1412,39
558,77	1421,43
558,86	1351,38
558,95	1353,64
559,04	1367,20
559,13	1353,64
559,22	1351,38
559,31	1349,12
559,40	1322,00
559,49	1353,64
559,59	1421,43
559,68	1378,49
559,77	1389,79
559,86	1344,60
559,95	1351,38
560,04	1340,08
560,13	1369,46
560,22	1358,16
560,31	1412,39
560,40	1340,08
560,49	1351,38
560,58	1303,92
560,67	1297,14
560,76	1260,98
560,85	1308,44
560,94	1376,24
561,03	1288,10
561,12	1471,15
561,21	1446,29
561,30	1342,34
561,39	1396,57
561,48	1414,65
561,57	1267,76
561,66	1342,34
561,75	1324,26
561,84	1432,73
561,93	1383,01
562,02	1373,98
562,11	1290,36
562,20	1369,46
562,29	1312,96
562,38	1360,42
562,47	1455,33
562,56	1342,34
562,65	1326,52
562,74	1337,82
562,83	1468,89
562,92	1337,82
563,01	1387,53
563,10	1270,02
563,19	1346,86
563,28	1493,75
563,37	1376,24
563,46	1306,18
563,55	1364,94
563,64	1475,67
563,73	1328,78
563,82	1396,57
563,91	1396,57
564,00	1376,24
564,09	1340,08
564,18	1333,30
564,27	1306,18
564,35	1319,74
564,44	1310,70
564,53	1373,98
564,62	1383,01
564,71	1351,38
564,80	1326,52
564,89	1394,31
564,98	1394,31
565,07	1349,12
565,16	1362,68
565,25	1509,56
565,34	1310,70
565,43	1344,60
565,51	1326,52
565,60	1328,78
565,69	1312,96
565,78	1439,51
565,87	1405,61
565,96	1328,78
566,05	1351,38
566,14	1364,94
566,23	1308,44
566,32	1403,35
566,40	1367,20
566,49	1373,98
566,58	1380,75
566,67	1389,79
566,76	1346,86
566,85	1360,42
566,94	1480,19
567,03	1405,61
567,11	1434,99
567,20	1480,19
567,29	1636,12
567,38	1493,75
567,47	1457,59
567,56	1468,89
567,65	1561,54
567,73	1380,75
567,82	1383,01
567,91	1349,12
568,00	1380,75
568,09	1373,98
568,18	1369,46
568,27	1335,56
568,35	1324,26
568,44	1276,80
568,53	1364,94
568,62	1405,61
568,71	1373,98
568,80	1328,78
568,88	1342,34
568,97	1450,81
569,06	1407,87
569,15	1362,68
569,24	1378,49
569,32	1439,51
569,41	1455,33
569,50	1328,78
569,59	1367,20
569,68	1378,49
569,76	1367,20
569,85	1428,21
569,94	1328,78
570,03	1423,69
570,12	1376,24
570,20	1340,08
570,29	1342,34
570,38	1401,09
570,47	1450,81
570,56	1396,57
570,64	1355,90
570,73	1312,96
570,82	1387,53
570,91	1394,31
570,99	1344,60
571,08	1369,46
571,17	1362,68
571,26	1367,20
571,34	1373,98
571,43	1394,31
571,52	1439,51
571,61	1335,56
571,69	1439,51
571,78	1462,11
571,87	1425,95
571,96	1414,65
572,04	1482,45
572,13	1398,83
572,22	1446,29
572,31	1403,35
572,39	1401,09
572,48	1464,37
572,57	1502,79
572,66	1480,19
572,74	1477,93
572,83	1523,12
572,92	1511,82
573,00	1471,15
573,09	1550,24
573,18	1511,82
573,27	1561,54
573,35	1536,68
573,44	1534,42
573,53	1527,64
573,61	1595,44
573,70	1640,63
573,79	1579,62
573,87	1570,58
573,96	1561,54
574,05	1658,71
574,14	1647,41
574,22	1595,44
574,31	1760,41
574,40	1717,47
574,48	1742,33
574,57	1807,86
574,66	1889,22
574,74	1855,32
574,83	2065,48
574,92	2081,30
575,00	2128,76
575,09	2160,40
575,18	2210,11
575,26	2393,16
575,35	2465,47
575,43	2582,98
575,52	2668,86
575,61	2869,98
575,69	3041,73
575,78	3475,61
575,87	4045,09
575,95	5084,61
576,04	7150,09
576,13	11893,47
576,21	20428,84
576,30	32367,51
576,38	48584,03
576,47	59729,50
576,56	64832,19
576,64	65535,00
576,73	65535,00
576,82	65535,00
576,90	65419,75
576,99	62319,27
577,07	55930,73
577,16	42233,92
577,25	26069,37
577,33	14901,30
577,42	8883,38
577,50	6239,38
577,59	4677,84
577,68	4338,87
577,76	3941,14
577,85	4017,97
577,93	4268,81
578,02	4743,38
578,10	6182,89
578,19	9371,50
578,28	15294,51
578,36	24939,46
578,45	39300,66
578,53	53856,21
578,62	61582,56
578,70	65184,73
578,79	65535,00
578,88	65535,00
578,96	65535,00
579,05	63060,49
579,13	58861,73
579,22	49544,46
579,30	34044,30
579,39	20035,63
579,47	11812,12
579,56	7608,84
579,64	5457,48
579,73	4327,57
579,82	3717,42
579,90	3441,72
579,99	3326,47
580,07	3168,28
580,16	3046,25
580,24	3014,61
580,33	2894,84
580,41	2833,82
580,50	2553,61
580,58	2463,21
580,67	2311,80
580,75	2201,07
580,84	2074,52
580,92	2002,21
581,01	2072,26
581,09	2033,84
581,18	1902,77
581,26	1846,28
581,35	1841,76
581,43	1859,84
581,52	1767,19
581,60	1803,34
581,69	1814,64
581,77	1839,50
581,86	1866,62
581,94	1703,91
582,02	1789,78
582,11	1758,15
582,19	1719,73
582,28	1744,59
582,36	1721,99
582,45	1728,77
582,53	1762,67
582,62	1568,32
582,70	1670,01
582,79	1633,86
582,87	1568,32
582,96	1710,69
583,04	1699,39
583,12	1708,43
583,21	1670,01
583,29	1651,93
583,38	1590,92
583,46	1712,95
583,55	1731,03
583,63	1613,52
583,71	1647,41
583,80	1656,45
583,88	1525,38
583,97	1660,97
584,05	1660,97
584,13	1545,72
584,22	1552,50
584,30	1552,50
584,39	1622,56
584,47	1613,52
584,55	1505,05
584,64	1584,14
584,72	1557,02
584,81	1575,10
584,89	1550,24
584,97	1581,88
585,06	1584,14
585,14	1615,78
585,23	1545,72
585,31	1559,28
585,39	1624,82
585,48	1647,41
585,56	1529,90
585,64	1627,08
585,73	1656,45
585,81	1674,53
585,90	1649,67
585,98	1568,32
586,06	1613,52
586,15	1667,75
586,23	1599,96
586,31	1595,44
586,40	1581,88
586,48	1651,93
586,56	1502,79
586,65	1505,05
586,73	1633,86
586,81	1572,84
586,90	1588,66
586,98	1561,54
587,06	1590,92
587,15	1629,34
587,23	1611,26
587,31	1516,34
587,40	1525,38
587,48	1471,15
587,56	1514,08
587,65	1471,15
587,73	1471,15
587,81	1437,25
587,90	1491,49
587,98	1371,72
588,06	1455,33
588,14	1396,57
588,23	1394,31
588,31	1516,34
588,39	1421,43
588,48	1444,03
588,56	1405,61
588,64	1480,19
588,72	1468,89
588,81	1511,82
588,89	1444,03
588,97	1455,33
589,06	1410,13
589,14	1430,47
589,22	1459,85
589,30	1315,22
589,39	1387,53
589,47	1362,68
589,55	1466,63
589,63	1416,91
589,72	1342,34
589,80	1342,34
589,88	1326,52
589,96	1315,22
590,05	1367,20
590,13	1385,27
590,21	1383,01
590,29	1430,47
590,38	1383,01
590,46	1373,98
590,54	1376,24
590,62	1423,69
590,71	1398,83
590,79	1392,05
590,87	1396,57
590,95	1369,46
591,03	1256,46
591,12	1371,72
591,20	1373,98
591,28	1392,05
591,36	1412,39
591,44	1333,30
591,53	1369,46
591,61	1389,79
591,69	1373,98
591,77	1394,31
591,85	1423,69
591,94	1416,91
592,02	1335,56
592,10	1401,09
592,18	1383,01
592,26	1396,57
592,34	1410,13
592,43	1464,37
592,51	1401,09
592,59	1437,25
592,67	1371,72
592,75	1419,17
592,84	1362,68
592,92	1448,55
593,00	1346,86
593,08	1421,43
593,16	1392,05
593,24	1455,33
593,32	1441,77
593,41	1378,49
593,49	1401,09
593,57	1383,01
593,65	1317,48
593,73	1328,78
593,81	1401,09
593,89	1326,52
593,98	1312,96
594,06	1292,62
594,14	1281,32
594,22	1322,00
594,30	1247,42
594,38	1360,42
594,46	1322,00
594,54	1292,62
594,62	1328,78
594,71	1306,18
594,79	1267,76
594,87	1272,28
594,95	1283,58
595,03	1355,90
595,11	1258,72
595,19	1288,10
595,27	1322,00
595,35	1362,68
595,43	1288,10
595,52	1285,84
595,60	1288,10
595,68	1383,01
595,76	1290,36
595,84	1260,98
595,92	1288,10
596,00	1380,75
596,08	1290,36
596,16	1267,76
596,24	1285,84
596,32	1274,54
596,40	1312,96
596,48	1342,34
596,56	1292,62
596,64	1322,00
596,73	1367,20
596,81	1199,97
596,89	1247,42
596,97	1245,16
597,05	1353,64
597,13	1333,30
597,21	1299,40
597,29	1276,80
597,37	1322,00
597,45	1342,34
597,53	1209,01
597,61	1355,90
597,69	1292,62
597,77	1204,49
597,85	1258,72
597,93	1285,84
598,01	1333,30
598,09	1272,28
598,17	1283,58
598,25	1308,44
598,33	1272,28
598,41	1285,84
598,49	1288,10
598,57	1301,66
598,65	1265,50
598,73	1306,18
598,81	1299,40
598,89	1249,68
598,97	1274,54
599,05	1319,74
599,13	1215,79
599,21	1270,02
599,29	1419,17
599,37	1344,60
599,45	1349,12
599,53	1319,74
599,61	1270,02
599,69	1312,96
599,77	1373,98
599,85	1283,58
599,93	1315,22
600,00	1276,80
600,08	1188,67
600,16	1236,13
600,24	1317,48
600,32	1315,22
600,40	1324,26
600,48	1328,78
600,56	1353,64
600,64	1322,00
600,72	1267,76
600,80	1215,79
600,88	1279,06
600,96	1272,28
601,04	1193,19
601,12	1240,65
601,19	1227,09
601,27	1213,53
601,35	1233,87
601,43	1222,57
601,51	1281,32
601,59	1145,73
601,67	1256,46
601,75	1215,79
601,83	1294,88
601,91	1229,35
601,98	1245,16
602,06	1260,98
602,14	1308,44
602,22	1285,84
602,30	1274,54
602,38	1270,02
602,46	1224,83
602,54	1315,22
602,61	1276,80
602,69	1242,91
602,77	1197,71
602,85	1195,45
602,93	1238,39
603,01	1267,76
603,09	1247,42
603,17	1249,68
603,24	1240,65
603,32	1197,71
603,40	1310,70
603,48	1263,24
603,56	1258,72
603,64	1256,46
603,71	1218,05
603,79	1260,98
603,87	1251,94
603,95	1346,86
604,03	1215,79
604,11	1344,60
604,18	1231,61
604,26	1258,72
604,34	1222,57
604,42	1263,24
604,50	1220,31
604,57	1206,75
604,65	1242,91
604,73	1247,42
604,81	1272,28
604,89	1213,53
604,96	1303,92
605,04	1258,72
605,12	1281,32
605,20	1319,74
605,28	1301,66
605,35	1236,13
605,43	1260,98
605,51	1229,35
605,59	1227,09
605,67	1297,14
605,74	1193,19
605,82	1294,88
605,90	1256,46
605,98	1213,53
606,05	1260,98
606,13	1229,35
606,21	1195,45
606,29	1236,13
606,36	1209,01
606,44	1238,39
606,52	1240,65
606,60	1245,16
606,67	1342,34
606,75	1272,28
606,83	1297,14
606,91	1324,26
606,98	1371,72
607,06	1267,76
607,14	1303,92
607,22	1265,50
607,29	1322,00
607,37	1290,36
607,45	1364,94
607,52	1319,74
607,60	1319,74
607,68	1256,46
607,76	1229,35
607,83	1270,02
607,91	1281,32
607,99	1265,50
608,06	1267,76
608,14	1270,02
608,22	1297,14
608,30	1317,48
608,37	1312,96
608,45	1283,58
608,53	1279,06
608,60	1340,08
608,68	1328,78
608,76	1279,06
608,83	1333,30
608,91	1299,40
608,99	1310,70
609,06	1331,04
609,14	1312,96
609,22	1317,48
609,29	1326,52
609,37	1355,90
609,45	1346,86
609,52	1333,30
609,60	1414,65
609,68	1423,69
609,75	1486,97
609,83	1342,34
609,91	1534,42
609,98	1428,21
610,06	1496,01
610,13	1590,92
610,21	1670,01
610,29	1679,05
610,36	1633,86
610,44	1780,74
610,52	1825,94
610,59	1893,74
610,67	1984,13
610,74	2049,66
610,82	2128,76
610,90	2153,62
610,97	2133,28
611,05	2201,07
611,13	2153,62
611,20	2219,15
611,28	2203,33
611,35	2070,00
611,43	2110,68
611,51	1990,91
611,58	1907,29
611,66	2018,03
611,73	1893,74
611,81	1891,48
611,88	1794,30
611,96	1649,67
612,04	1683,57
612,11	1624,82
612,19	1656,45
612,26	1606,74
612,34	1685,83
612,41	1527,64
612,49	1471,15
612,57	1489,23
612,64	1459,85
612,72	1552,50
612,79	1491,49
612,87	1410,13
612,94	1373,98
613,02	1493,75
613,09	1450,81
613,17	1444,03
613,24	1380,75
613,32	1394,31
613,40	1437,25
613,47	1407,87
613,55	1462,11
613,62	1468,89
613,70	1401,09
613,77	1337,82
613,85	1360,42
613,92	1328,78
614,00	1358,16
614,07	1405,61
614,15	1335,56
614,22	1401,09
614,30	1380,75
614,37	1358,16
614,45	1441,77
614,52	1333,30
614,60	1369,46
614,67	1319,74
614,75	1285,84
614,82	1349,12
614,90	1310,70
614,97	1340,08
615,05	1355,90
615,12	1333,30
615,20	1272,28
615,27	1401,09
615,34	1342,34
615,42	1263,24
615,49	1303,92
615,57	1254,20
615,64	1233,87
615,72	1211,27
615,79	1224,83
615,87	1256,46
615,94	1281,32
616,02	1290,36
616,09	1240,65
616,16	1256,46
616,24	1281,32
616,31	1242,91
616,39	1285,84
616,46	1231,61
616,54	1285,84
616,61	1290,36
616,68	1206,75
616,76	1224,83
616,83	1242,91
616,91	1238,39
616,98	1272,28
617,06	1276,80
617,13	1184,15
617,20	1168,33
617,28	1209,01
617,35	1227,09
617,43	1227,09
617,50	1256,46
617,57	1260,98
>>>>>End Processed Spectral Data<<<<<
